timestamp,emg1,emg2,emg3,emg4,emg5,emg6,emg7,emg8
1676113653360755,0,-2,1,9,10,13,-2,8
1676113653360755,-4,-5,-2,-20,-15,-33,-4,-17
1676113653361756,-2,0,-2,-16,-13,-21,1,-9
1676113653361756,6,0,1,13,10,32,4,16
1676113653361756,-1,-6,-1,11,6,13,-2,7
1676113653361756,-3,0,1,-3,4,-16,-2,-10
1676113653364755,-3,0,-1,-16,-15,-26,-2,-14
1676113653364755,5,3,-4,9,6,29,4,11
1676113653373749,3,3,4,15,9,19,-1,7
1676113653373749,-6,-7,-9,-11,-2,-15,-4,-10
1676113653380746,-3,3,0,-16,-12,-23,-2,-12
1676113653380746,0,-11,-1,13,6,22,2,12
1676113653388740,-1,3,-5,10,9,12,0,7
1676113653388740,-2,0,0,-9,-10,-22,-3,-10
1676113653401732,1,5,0,-15,-8,-16,-1,-7
1676113653401732,2,4,5,12,8,22,-1,12
1676113653413726,-1,-3,3,6,7,6,0,5
1676113653413726,-3,-3,-8,-9,-6,-15,-3,-8
1676113653425719,-3,-3,0,-11,-8,-6,0,-6
1676113653425719,1,1,-2,11,5,19,2,7
1676113653433715,-2,-3,-2,-5,-2,1,-3,-3
1676113653433715,-3,2,3,-6,-3,-10,-2,-3
1676113653446707,2,1,3,5,1,-1,-1,1
1676113653446707,1,1,-4,-1,1,7,-1,5
1676113653487684,-3,-3,-1,-35,-17,-47,-3,-22
1676113653487684,2,2,3,5,-1,19,4,8
1676113653488683,2,0,-2,16,13,36,1,17
1676113653488683,-3,-10,-2,-6,-2,-15,-5,-8
1676113653489683,-6,3,-2,-17,-16,-36,-5,-17
1676113653489683,3,4,0,2,1,4,0,-1
1676113653492681,2,0,4,18,11,33,2,16
1676113653492681,-1,3,0,-2,0,-7,-2,-1
1676113653499676,-5,-5,-5,-19,-15,-36,-3,-17
1676113653499676,1,-2,0,1,1,1,3,0
1676113653507672,3,0,-2,11,10,31,4,13
1676113653507672,-4,0,1,3,2,-10,-3,-4
1676113653514668,-4,-2,0,-15,-11,-29,-3,-15
1676113653514668,1,0,-3,2,-2,9,0,4
1676113653529660,0,-3,-3,11,11,22,-1,11
1676113653529660,-3,-6,-3,-10,-5,-11,-3,-5
1676113653536656,-2,4,-1,-15,-11,-17,-1,-9
1676113653536656,-1,-4,0,3,-1,9,0,3
1676113653551647,2,-7,0,13,10,10,-1,5
1676113653551647,-3,3,-2,-6,-5,-9,-3,-6
1676113653560642,-3,0,-1,-7,-6,-8,0,-5
1676113653560642,2,6,2,6,3,4,2,3
1676113653575634,1,-1,2,0,1,7,-1,2
1676113653575634,-2,-3,-5,-10,-6,-9,-1,-4
1676113653581630,0,-2,1,2,1,-7,-1,-5
1676113653581630,0,-3,-5,-4,-3,3,0,1
1676113653598619,-1,-3,-5,5,1,6,-1,3
1676113653598619,0,0,1,-1,-2,-3,1,0
1676113653599620,-1,1,-3,-4,-4,-6,-2,-3
1676113653599620,1,-1,1,-3,0,-2,-1,0
1676113653611614,-1,-2,2,6,5,5,0,2
1676113653611614,1,-2,-4,-4,-2,-2,-1,-2
1676113653620608,-1,-5,-1,-7,-6,-7,-4,-3
1676113653620608,1,0,1,-7,-1,3,2,2
1676113653635600,-1,-1,-4,0,-1,-2,-2,1
1676113653635600,-3,1,4,7,6,-1,-2,-3
1676113653637598,-2,-2,4,-2,-6,-6,-1,-2
1676113653637598,1,2,-6,-7,-1,3,-1,0
1676113653658586,0,3,-1,-1,-1,2,-1,0
1676113653658586,-3,-1,-1,-2,-6,-4,-2,-6
1676113653659586,0,-4,-4,2,2,-3,0,-1
1676113653659586,-2,-3,-1,-2,0,1,1,1
1676113653671579,0,1,2,7,1,0,0,-1
1676113653671579,0,3,1,1,0,-4,-1,1
1676113653688569,-2,1,3,-1,-2,0,-1,1
1676113653688569,-1,2,-1,2,0,1,-4,-1
1676113653695565,-1,-7,-3,-2,0,-1,-1,-1
1676113653695565,-3,-3,-5,-3,-2,-4,-3,-3
1676113653697564,0,2,-4,-1,-1,-3,0,-1
1676113653697564,-3,-4,-2,-6,-1,3,-2,-1
1676113653718552,-1,6,3,2,1,0,0,0
1676113653718552,0,0,4,-2,-4,-3,-1,-2
1676113653719551,-4,-4,-9,-7,-4,-4,1,-1
1676113653719551,-1,0,1,7,0,-1,0,-1
1676113653731544,-1,2,3,1,-2,2,-3,-1
1676113653731544,-1,0,3,3,6,-2,1,-1
1676113653740539,-1,-4,-7,-3,-2,1,0,-2
1676113653740539,-1,-1,0,1,-1,0,-1,-1
1676113653754531,-4,1,0,-3,-1,-2,-1,-3
1676113653754531,1,4,0,3,-1,-4,-1,0
1676113653761528,-1,1,-1,0,-3,-1,-2,-1
1676113653761528,0,-2,0,-3,-1,2,0,2
1676113653777519,-3,-14,-3,-2,-2,-2,-1,-2
1676113653777519,-2,1,-2,-6,-6,-1,0,-1
1676113653778517,0,4,7,6,3,3,2,-3
1676113653778517,-1,-1,-8,-1,1,1,-1,2
1676113653799505,1,0,-2,-4,-5,-6,-1,-2
1676113653799505,-2,-7,-8,2,7,-5,0,-2
1676113653800505,-1,3,12,-5,-8,6,2,3
1676113653800505,-1,-1,-4,-4,-6,-3,-3,0
1676113653815496,-2,0,-1,0,1,-2,1,-1
1676113653815496,0,-2,-2,-4,-6,-7,-1,-4
1676113653815496,-1,2,1,1,3,-2,-2,-3
1676113653815496,0,-4,2,6,4,4,-1,-1
1676113653837484,-2,2,-2,-6,-2,-6,-1,-2
1676113653837484,1,1,-2,-8,-6,-1,0,0
1676113653838483,1,5,4,15,12,0,-1,1
1676113653838483,0,1,0,-5,-3,4,0,0
1676113653861470,-1,-8,-5,-1,-1,-4,0,-3
1676113653861470,-4,0,1,0,0,-1,-2,-3
1676113653862469,0,-4,-7,-5,-6,1,-1,-1
1676113653862469,0,1,0,3,2,-1,1,2
1676113653874463,-1,5,-1,1,-1,-5,-2,-3
1676113653874463,-2,-6,-1,-3,-3,5,0,-2
1676113653882459,0,-7,-2,-3,-2,-1,-1,-1
1676113653882459,-3,2,4,6,2,-1,1,2
1676113653897449,1,0,-2,-1,0,-4,-3,1
1676113653897449,-2,2,4,-6,-3,-3,1,-2
1676113653898449,-2,-4,-8,1,3,-1,0,0
1676113653898449,-2,-3,-2,0,-2,4,-1,0
1676113653921436,-2,1,5,-3,2,0,0,-1
1676113653921436,-1,-3,-4,-3,-3,-3,-2,0
1676113653922436,1,4,1,-1,-3,0,1,1
1676113653922436,3,1,0,4,3,0,-1,-1
1676113653934428,0,2,1,2,-1,-2,-2,-1
1676113653934428,0,-4,-1,-6,0,3,0,1
1676113653941425,1,-2,-4,-1,-5,0,-2,-1
1676113653941425,0,1,3,4,3,5,-1,3
1676113653957416,-1,0,-3,1,1,-4,0,-1
1676113653957416,2,5,-2,4,0,-15,-2,-2
1676113653958415,1,2,11,-3,10,35,8,4
1676113653958415,-1,-11,-6,-12,-6,-2,-3,0
1676113653980402,-1,0,1,3,0,-4,-1,-2
1676113653980402,-1,2,0,3,2,5,1,0
1676113653980402,0,2,0,7,4,-8,-2,-2
1676113653980402,-2,3,6,7,3,0,0,0
1676113653994394,-2,-2,-2,-5,-3,8,2,-2
1676113653994394,0,-3,-2,0,-2,-6,-3,-4
1676113654001390,-2,-3,-7,-4,-4,-8,-3,0
1676113654001390,0,0,-1,0,0,6,-1,1
1676113654017381,-1,-2,0,-3,-1,-7,0,-1
1676113654017381,-1,-1,-2,-3,-4,-2,-1,-4
1676113654018382,-2,-4,-5,-4,-8,-5,-4,0
1676113654018382,2,1,5,3,-3,11,6,3
1676113654040368,-1,-2,-4,-1,0,-1,0,-1
1676113654040368,-1,3,-2,-1,-1,-5,-2,-1
1676113654040368,2,0,3,-2,-1,1,-1,1
1676113654040368,-2,-7,-6,3,11,-5,-5,-3
1676113654054360,3,2,2,-2,-9,-5,-1,-1
1676113654054360,-1,-5,-2,-7,-6,-2,-3,1
1676113654062355,-1,-6,-1,-2,-1,-4,-4,-1
1676113654062355,0,3,-2,2,-2,-3,1,-1
1676113654077348,1,-2,-3,0,0,-2,-2,-3
1676113654077348,0,2,-1,0,-1,1,-1,-1
1676113654078346,1,1,-1,-1,1,-2,-1,-1
1676113654078346,-2,-4,-7,0,1,-11,-3,0
1676113654100333,-1,-1,0,-5,-7,-4,-2,1
1676113654100333,2,1,0,1,-1,-1,0,-1
1676113654100333,-1,0,0,4,0,3,-1,2
1676113654100333,-3,-1,0,-1,2,3,2,-1
1676113654114326,-3,0,-3,1,-1,-7,-3,-4
1676113654114326,2,-8,-2,-3,-6,-4,-2,-2
1676113654122322,0,4,3,-2,-1,1,1,1
1676113654122322,1,3,4,6,2,4,1,0
1676113654137314,-2,-3,-1,-3,0,2,-1,-1
1676113654137314,-2,4,2,-2,1,-2,-2,-1
1676113654138311,0,-4,-2,-1,-1,2,0,-1
1676113654138311,0,-5,-3,-1,-2,6,2,-1
1676113654160300,-3,-11,1,-3,0,-4,-2,-3
1676113654160300,0,5,-2,-1,-1,-1,-1,-2
1676113654160300,1,4,0,0,-4,5,1,0
1676113654160300,-2,0,-4,3,3,3,-1,1
1676113654174290,0,-2,3,-1,1,-5,1,-3
1676113654174290,-2,-2,-2,4,1,-7,-1,-2
1676113654182287,2,6,8,4,2,17,3,3
1676113654182287,1,1,-2,-4,-4,-1,-1,-1
1676113654197278,-1,2,-2,-1,-1,-4,-3,-1
1676113654197278,0,-4,-3,-4,-5,-2,-2,-2
1676113654198278,0,1,-2,1,4,0,0,0
1676113654198278,1,-1,2,5,1,4,-1,1
1676113654220265,-2,2,-3,-4,-1,-2,0,-2
1676113654220265,-2,2,-1,-4,2,1,1,1
1676113654221266,-2,-2,-6,-1,0,-1,-1,-1
1676113654221266,2,4,3,-3,-11,6,1,2
1676113654234256,-1,-8,-4,-1,0,-6,-3,-1
1676113654234256,-2,-3,0,-3,0,1,1,-2
1676113654242253,-1,2,-1,-1,2,-1,-3,0
1676113654242253,-2,4,-1,-2,3,-1,-1,1
1676113654257243,0,4,1,0,2,2,1,-3
1676113654257243,1,-2,0,-1,-4,-1,0,-1
1676113654258244,-3,-6,-5,-4,-3,0,1,0
1676113654258244,1,2,0,1,4,-1,-2,-1
1676113654280232,-1,2,1,-1,0,-2,-2,-2
1676113654280232,-1,-1,1,-1,1,0,-3,-2
1676113654281231,1,-1,-4,-2,-2,-2,0,0
1676113654281231,-3,-7,-2,0,1,4,-4,1
1676113654294223,-1,-1,-3,-1,1,-2,-1,-3
1676113654294223,-3,-5,0,-3,-13,-2,1,0
1676113654302220,0,-2,0,1,6,0,0,0
1676113654302220,2,2,0,3,1,2,-1,2
1676113654325206,0,3,2,-2,-2,-1,-1,-1
1676113654325206,1,0,-2,-3,-2,-2,1,0
1676113654326205,-1,-5,-1,0,-4,-1,-3,-1
1676113654326205,-1,-5,-3,2,1,-1,-2,1
1676113654340196,-1,2,0,0,1,-2,-1,-2
1676113654340196,-2,3,1,-1,2,0,0,0
1676113654341196,0,-1,-1,0,1,1,0,2
1676113654341196,1,-3,0,3,3,2,-1,0
1676113654354189,-2,-2,0,-1,-5,-5,-2,-2
1676113654354189,0,-3,-2,-3,-1,-2,-1,0
1676113654362185,-1,3,-2,1,1,2,-1,0
1676113654362185,0,2,-2,0,-1,3,-2,2
1676113654377177,0,-2,-2,-3,-1,-1,2,-1
1676113654377177,0,-7,0,-4,1,-2,-3,-2
1676113654378175,-1,3,-2,3,4,-1,-2,0
1676113654378175,0,0,0,-1,-4,5,3,1
1676113654400163,-2,4,3,-2,-2,-2,-1,-1
1676113654400163,-1,1,-5,-2,0,-5,-2,-3
1676113654401162,0,-1,0,1,-2,1,0,2
1676113654401162,-2,-1,-1,3,5,1,2,2
1676113654414156,0,-1,-5,-2,-2,-1,1,-3
1676113654414156,-2,0,1,0,-3,-5,0,0
1676113654422150,-1,-4,-4,-1,-2,3,-1,-1
1676113654422150,-2,0,1,3,3,2,1,1
1676113654437142,-1,2,2,-3,-9,-2,0,0
1676113654437142,-2,-2,-3,0,5,-1,-1,-3
1676113654438141,1,-3,-1,2,-4,3,0,0
1676113654438141,-1,1,0,0,2,1,0,1
1676113654460128,-3,-4,-3,-3,-3,-5,-2,-5
1676113654460128,0,0,-2,-4,-5,-1,-1,-2
1676113654461128,0,-1,1,0,-2,4,1,1
1676113654461128,0,2,2,11,14,2,-3,0
1676113654482118,-2,-8,-3,-4,2,-5,-1,-2
1676113654482118,-2,0,0,-7,-16,2,0,2
1676113654483114,-1,2,-1,7,16,1,-1,1
1676113654483114,-1,2,0,1,2,-1,-1,-2
1676113654505103,-2,-4,-4,0,2,-4,-1,-3
1676113654505103,1,-1,-4,2,5,-2,-1,-3
1676113654506102,2,0,1,-2,-7,4,-2,2
1676113654506102,-2,3,-1,0,-3,1,-2,1
1676113654520095,-2,1,-1,0,2,-5,-1,-2
1676113654520095,1,-5,-2,-1,-1,-2,0,-4
1676113654521094,0,1,3,2,0,2,3,0
1676113654521094,1,-2,-2,-4,-4,0,-3,0
1676113654542083,-2,1,2,-2,-3,-3,-1,-3
1676113654542083,-2,3,-4,-3,-2,-2,0,0
1676113654543081,0,-1,1,0,2,1,-1,0
1676113654543081,0,-13,-4,-1,-3,-1,-1,-1
1676113654565069,-1,5,4,-2,-7,-5,1,-1
1676113654565069,-1,4,1,5,5,0,0,0
1676113654566068,-1,-1,-3,-1,-5,6,-1,1
1676113654566068,-1,2,0,-2,-8,-1,0,-1
1676113654580060,1,-6,-4,-6,-3,-4,2,-3
1676113654580060,-1,0,5,2,2,-3,-1,-1
1676113654581059,-1,0,-8,-3,1,2,-1,1
1676113654581059,-3,-1,-2,-3,-4,2,-1,0
1676113654602048,2,3,-1,6,9,-4,-2,-2
1676113654602048,0,-1,3,-6,-7,-3,0,-2
1676113654603046,0,-4,-4,0,-5,6,1,1
1676113654603046,0,0,-1,-1,0,0,0,0
1676113654625035,-1,2,1,-4,-2,-4,1,-2
1676113654625035,-1,0,-3,-2,3,1,-1,-1
1676113654626034,0,-12,1,3,-1,1,-3,2
1676113654626034,-1,4,0,2,2,1,-1,-1
1676113654640027,-1,2,-2,-4,-7,-4,-2,-2
1676113654640027,-1,0,3,0,3,0,2,0
1676113654648020,1,2,3,2,2,4,0,2
1676113654648020,-2,-7,-4,1,-1,2,-2,-1
1676113654663014,-2,-1,-1,-3,-1,-4,1,-4
1676113654663014,0,1,0,0,-1,-5,-1,-4
1676113654663014,0,2,1,2,0,5,-1,1
1676113654663014,0,-4,-4,-9,-7,2,-1,-1
1676113654685001,-2,-2,-3,-3,-4,-3,-1,-2
1676113654685001,-1,1,-6,0,0,-1,0,-4
1676113654692996,0,-9,-4,3,3,3,1,1
1676113654692996,-2,3,-1,4,11,1,1,2
1676113654699993,-2,-1,0,-2,-1,0,-1,-3
1676113654699993,-1,1,-1,0,-2,0,-3,-2
1676113654700990,1,9,5,0,-2,0,1,1
1676113654700990,1,-6,-1,2,3,1,-1,1
1676113654722978,-2,-3,-2,-3,-2,-4,-1,-2
1676113654722978,0,-1,0,-2,-1,-4,0,-3
1676113654722978,-3,-6,-4,0,-1,4,-1,0
1676113654722978,-2,-3,-1,-1,-2,1,-1,0
1676113654744966,-1,1,1,1,-1,-3,-2,-3
1676113654744966,0,-7,-4,-3,-3,-1,-3,1
1676113654745965,1,11,-2,0,1,5,2,1
1676113654745965,-2,5,2,1,2,3,0,3
1676113654759958,0,-8,-3,-2,-2,-4,-2,-2
1676113654759958,0,-7,0,-3,-4,-4,0,-3
1676113654760956,-3,1,-1,-1,3,-1,1,-3
1676113654760956,2,2,5,4,1,4,2,0
1676113654782944,-3,-9,-6,-5,-1,-3,-1,-2
1676113654782944,-2,3,-2,-5,-2,-2,-1,-1
1676113654782944,2,8,1,-1,1,1,-3,-1
1676113654782944,2,-3,1,3,-3,2,0,-1
1676113654804931,-3,0,0,-3,-1,-4,-1,-1
1676113654804931,-1,-2,-2,-2,-4,-4,-3,-2
1676113654805931,2,4,2,3,-1,2,-1,0
1676113654805931,-1,8,5,3,3,3,0,2
1676113654819924,-3,-11,-5,-4,-3,-4,-1,-1
1676113654819924,3,-8,-2,-2,-2,-6,-1,-3
1676113654820922,-6,1,2,1,2,1,0,-4
1676113654820922,0,-11,-3,2,0,2,-1,3
1676113654842909,0,18,3,1,-1,-1,-4,0
1676113654842909,-11,3,-1,-6,-3,-5,-1,-4
1676113654843909,7,-2,4,-2,-2,-2,-1,1
1676113654843909,1,-15,-9,3,2,6,2,3
1676113654864897,0,-4,-4,-2,-1,-1,0,-2
1676113654864897,1,8,2,-5,-5,-6,-2,-3
1676113654865899,-10,-15,-2,-1,-2,2,-2,-1
1676113654865899,4,12,8,6,3,3,-2,2
1676113654879891,-2,-3,0,0,0,-2,0,-1
1676113654879891,-2,-11,-4,-5,-1,-5,1,-5
1676113654887885,4,6,-4,0,-1,-2,0,1
1676113654887885,-2,3,3,0,1,7,0,3
1676113654902877,-1,2,-8,-1,-2,-2,-3,-1
1676113654902877,-2,0,5,0,-1,-7,0,-5
1676113654902877,0,-10,-5,2,-2,1,1,2
1676113654902877,1,4,-3,4,1,7,1,3
1676113654924863,2,4,5,-1,-1,1,1,-1
1676113654924863,-4,0,2,-3,-2,-6,-1,-3
1676113654925862,-6,-9,-3,-2,1,1,0,0
1676113654925862,0,-3,-12,4,3,7,-1,3
1676113654938856,0,6,3,-2,0,1,1,-2
1676113654938856,-1,-1,-3,-4,-4,-6,-2,-2
1676113654947853,2,10,3,0,-1,1,2,0
1676113654947853,-5,-10,-1,5,1,6,-1,3
1676113654961843,-9,-8,-2,-1,-3,-4,-2,-2
1676113654961843,5,8,0,-3,-3,-9,-2,-5
1676113654969837,4,-1,-3,0,1,1,0,0
1676113654969837,-2,2,3,2,4,10,1,2
1676113654984829,1,-3,-4,0,1,0,0,-3
1676113654984829,-8,-3,2,-6,-7,-7,1,-7
1676113654985828,0,3,-1,0,-2,-1,-2,2
1676113654985828,3,2,1,7,5,9,0,3
1676113654999821,-1,-8,1,0,0,-1,-1,-1
1676113654999821,-3,-5,-5,-7,-6,-8,-3,-4
1676113655007816,2,3,0,-1,-1,2,0,1
1676113655007816,2,5,0,5,4,9,1,3
1676113655022808,-2,-8,-1,0,-1,-4,-3,-2
1676113655022808,1,-4,-2,-5,-5,-10,-2,-3
1676113655023807,3,3,0,-2,-3,0,1,-1
1676113655023807,-2,-1,-1,4,4,10,0,5
1676113655044794,-1,6,0,1,1,-2,-3,-1
1676113655044794,2,-2,-2,-6,-3,-9,-2,-2
1676113655045795,-4,-15,0,0,-3,-1,0,0
1676113655045795,-1,-2,-3,2,-1,6,1,3
1676113655059785,-2,3,-1,0,1,0,0,1
1676113655059785,1,-6,0,-5,-4,-10,-3,-4
1676113655067782,-2,10,0,-3,0,1,0,1
1676113655067782,1,-3,0,4,4,3,-1,3
1676113655082773,0,1,-1,-4,-5,-4,-1,-2
1676113655082773,-1,5,-3,-4,-5,-7,-2,-2
1676113655083772,1,-5,-3,0,0,3,0,-1
1676113655083772,-1,-7,-3,0,2,6,0,3
1676113655104760,0,7,2,1,2,-6,-1,-4
1676113655104760,-6,0,0,-6,-2,-8,-1,-4
1676113655105759,1,-5,0,1,-1,2,1,1
1676113655105759,2,-1,-1,5,2,6,-1,0
1676113655119752,0,0,1,-3,-1,-3,0,0
1676113655119752,-1,-2,0,-5,-3,-9,-3,-7
1676113655127748,-1,-3,-3,1,0,4,1,2
1676113655127748,1,9,1,6,2,5,-4,2
1676113655142739,-2,-16,-1,-3,-3,-1,1,-1
1676113655142739,-3,-9,-6,-6,-4,-6,-2,-4
1676113655143738,0,11,2,-2,-2,2,1,2
1676113655143738,-1,-1,2,7,6,4,-2,1
1676113655164726,0,2,2,-1,0,-3,-2,0
1676113655164726,2,1,1,-4,-2,-4,0,-2
1676113655165725,0,-6,-1,3,1,3,0,1
1676113655165725,-2,1,3,3,2,4,-2,1
1676113655188712,-1,-4,-3,-2,-1,-6,-2,-3
1676113655188712,-2,2,5,3,1,-3,-1,-5
1676113655188712,2,0,-2,-2,1,2,-2,0
1676113655188712,-1,-8,-7,-6,-1,2,0,1
1676113655202706,-1,0,-1,-5,-1,-6,-3,-3
1676113655202706,0,5,1,-3,-4,-5,0,-2
1676113655203704,0,2,0,5,2,4,0,2
1676113655203704,-1,-8,-2,1,-1,-1,-1,-1
1676113655225691,-2,-7,-2,-4,-2,-4,-1,-1
1676113655225691,-1,5,-2,-1,-2,-3,1,-4
1676113655226691,-2,1,-4,0,3,4,-1,0
1676113655226691,-2,-1,1,-1,-1,-2,2,-2
1676113655248677,-2,-1,-2,-3,-2,-4,-3,-3
1676113655248677,-1,-4,-3,-4,-6,-3,0,-1
1676113655248677,0,-3,1,1,1,1,-1,1
1676113655248677,0,-2,-2,-3,-3,-8,-1,-3
1676113655262670,-3,4,-1,-4,-5,-9,1,-4
1676113655262670,0,2,0,-1,-3,-4,-1,-3
1676113655263669,-2,-6,-6,-1,1,1,0,0
1676113655263669,-2,-4,-7,-8,-3,-5,0,-3
1676113655284658,-2,1,-2,-5,-6,-6,-1,-5
1676113655284658,1,2,3,-6,-2,-5,-1,-3
1676113655285657,0,0,1,1,-3,1,-2,2
1676113655285657,-3,3,7,3,-1,-1,-1,-2
1676113655308644,-2,-10,-5,-3,-1,-4,1,-4
1676113655308644,-2,2,-4,-4,-1,-1,0,2
1676113655308644,2,1,-5,0,-2,5,-1,4
1676113655308644,-1,1,4,5,6,0,0,0
1676113655322635,1,5,2,0,-5,2,-3,-2
1676113655322635,-2,-5,-2,-2,2,0,-2,-2
1676113655323635,-3,-2,2,6,3,5,1,2
1676113655323635,-1,1,-4,-3,-3,-4,-3,-2
1676113655344623,1,-3,0,-5,-3,-4,-1,-2
1676113655344623,3,0,1,-2,1,-3,-1,-2
1676113655345623,-2,1,-1,1,3,1,1,2
1676113655345623,-3,3,-2,0,0,-2,-2,-2
1676113655368611,-1,-5,1,-3,-2,-6,-1,-3
1676113655368611,1,-5,-5,-4,-3,-1,-1,-1
1676113655368611,0,2,2,4,2,4,-2,0
1676113655368611,0,-1,2,1,-1,-1,0,-2
1676113655382601,1,4,-5,-2,-2,-2,0,-2
1676113655382601,-1,3,4,2,0,-1,1,0
1676113655383602,1,-4,-1,3,2,4,0,0
1676113655383602,-2,-5,-3,-2,0,-2,-1,-1
1676113655404589,-2,2,6,-2,-1,-4,-2,-3
1676113655404589,-3,-5,-1,-2,-1,0,-2,-2
1676113655405589,-3,-5,-2,0,3,4,0,3
1676113655405589,0,-1,-3,3,-2,-4,0,-1
1676113655427575,0,1,0,-4,-2,-5,-1,-1
1676113655427575,-2,-2,-1,2,-2,0,-1,0
1676113655434572,1,7,3,1,-1,4,0,2
1676113655434572,-2,-7,1,-2,-1,-4,-1,-3
1676113655442566,-1,-6,-7,1,-1,-3,0,-1
1676113655442566,-1,3,-2,-4,-2,-1,-2,-2
1676113655450562,0,-2,-2,-1,1,4,-3,0
1676113655450562,-1,2,-2,-1,-1,-4,-2,-2
1676113655464554,-2,1,0,-1,-1,-6,-1,-4
1676113655464554,-1,0,0,-2,-4,1,0,-1
1676113655465554,0,0,7,4,0,3,-3,2
1676113655465554,-3,-1,-7,-1,6,-2,0,-1
1676113655488541,-1,1,3,-9,-8,-4,1,-3
1676113655488541,-1,-3,-5,1,-1,3,1,-1
1676113655488541,1,-1,-1,1,4,-1,-3,0
1676113655488541,-2,-2,7,3,0,-2,0,-2
1676113655502535,0,0,-3,-3,-1,-4,-2,0
1676113655502535,0,-3,-1,-9,0,2,2,-1
1676113655503532,-1,0,-1,5,4,3,-1,1
1676113655503532,-4,-7,1,-5,-9,-5,-1,-3
1676113655525520,0,0,-3,-1,-3,-3,1,-4
1676113655525520,0,1,-1,6,1,-2,-2,1
1676113655526520,-1,0,3,0,2,5,1,1
1676113655526520,1,1,-18,-13,-1,-4,-3,-1
1676113655548507,0,0,4,3,0,-2,-1,-4
1676113655548507,-2,-1,-4,-2,2,2,-1,0
1676113655548507,-2,-4,-8,4,2,3,-1,2
1676113655548507,-1,0,3,-6,-10,-5,-2,-4
1676113655562499,-2,1,1,-3,-2,-3,-4,-3
1676113655562499,3,1,5,5,4,1,0,1
1676113655563499,-1,0,-1,0,1,2,-1,0
1676113655563499,-1,-6,-2,-1,-2,-5,-1,-4
1676113655585485,-2,-2,-6,-5,-1,-2,0,-1
1676113655585485,-3,0,-2,-3,-2,1,0,-2
1676113655585485,1,-3,-1,0,1,1,1,-1
1676113655585485,0,0,-1,3,1,-6,-2,-3
1676113655608475,-1,12,9,-1,-7,-4,0,-1
1676113655608475,-3,-7,-6,-4,1,1,-1,1
1676113655608475,-1,-10,0,-2,-2,2,0,0
1676113655608475,-3,2,-5,-3,-1,-8,-2,-6
1676113655622465,-1,0,0,1,-1,-1,1,-1
1676113655622465,4,7,6,5,-1,-1,2,1
1676113655623465,-3,-2,1,1,1,2,-2,1
1676113655623465,-3,-4,-2,0,-3,-1,-1,-2
1676113655645451,0,2,-2,-7,7,-3,0,-2
1676113655645451,1,0,1,2,0,2,-2,1
1676113655645451,-1,-2,1,5,-4,3,0,1
1676113655645451,-2,2,4,-12,-5,-8,-3,-3
1676113655668439,-3,-16,-14,-8,-5,-4,-3,-4
1676113655668439,0,-4,-2,1,1,1,0,0
1676113655669438,0,4,-3,4,-1,1,-1,1
1676113655669438,2,5,7,0,-3,-3,0,-2
1676113655682430,-2,1,-3,-6,-6,-3,-1,-2
1676113655682430,-2,-1,-1,0,-3,0,-2,-1
1676113655683431,1,1,1,2,1,3,0,2
1676113655683431,-2,0,-2,-6,-2,-4,0,-2
1676113655705417,-1,-12,1,-4,-4,-4,-1,-3
1676113655705417,-3,-2,-7,1,0,0,-2,-1
1676113655705417,-1,6,-2,-1,-1,2,1,-1
1676113655705417,2,2,1,0,1,-3,1,-1
1676113655728403,-1,0,3,0,0,-7,-1,-5
1676113655728403,1,-9,0,1,0,1,-1,0
1676113655729403,-1,0,-5,-3,-1,0,0,0
1676113655729403,-2,1,-3,-2,3,-5,-3,-1
1676113655742398,-2,-1,-2,-1,-6,-2,0,0
1676113655742398,-1,3,-1,-6,-1,-2,-1,0
1676113655743395,1,-1,1,8,6,4,-1,0
1676113655743395,-3,-7,-2,0,3,-4,0,-3
1676113655765383,1,4,1,-5,-6,-1,-3,-1
1676113655765383,-4,-3,-10,-9,-5,-1,0,-1
1676113655765383,-2,-1,1,2,0,1,-1,1
1676113655765383,-1,1,4,3,0,-3,-3,1
1676113655788371,0,-7,-5,2,12,-3,-2,-3
1676113655788371,0,-2,1,-3,-5,-2,-1,-3
1676113655789369,1,-9,-2,0,0,1,-1,0
1676113655789369,0,2,-4,-2,-5,-1,-2,-2
1676113655801363,3,5,3,-1,-3,-5,1,-1
1676113655801363,0,3,3,-3,-5,-4,-1,-1
1676113655810362,-3,3,3,3,1,5,1,0
1676113655810362,0,-7,1,1,-1,1,0,0
1676113655825351,-3,-9,-8,-4,-3,-5,-2,-1
1676113655825351,-3,-6,0,-3,-2,-5,1,-4
1676113655825351,2,11,5,1,-1,3,-2,2
1676113655825351,0,-3,-4,0,3,4,-1,1
1676113655848335,-1,-2,0,-4,-1,-4,-1,-3
1676113655848335,3,9,1,-6,-11,-5,-2,-4
1676113655849335,-2,-5,-1,3,5,2,0,1
1676113655849335,0,1,6,1,0,2,-3,1
1676113655861328,-2,3,-5,0,3,-2,-1,-3
1676113655861328,-1,-4,4,-5,-14,-7,-1,-1
1676113655870322,1,-3,-2,0,13,3,1,3
1676113655870322,1,-4,-1,4,2,1,-2,0
1676113655885314,-3,-8,1,-6,-6,-6,0,-3
1676113655885314,-2,-2,-2,-3,1,-8,-3,-6
1676113655886314,3,9,-2,-1,-3,5,1,0
1676113655886314,-2,-6,-5,2,2,3,1,1
1676113655908303,1,0,2,-4,-2,-6,-2,-3
1676113655908303,-8,7,0,-5,-2,-6,1,-2
1676113655909302,4,-12,-4,1,-1,5,0,4
1676113655909302,-1,-1,-4,4,2,3,-1,0
1676113655922294,2,2,1,-2,-5,-1,-1,-1
1676113655922294,2,5,2,-1,-2,-4,-2,-1
1676113655930288,-1,7,1,1,0,2,-2,4
1676113655930288,1,-14,-4,-2,1,6,-1,1
1676113655945282,-5,-11,0,-2,-3,-5,-2,-3
1676113655945282,-5,4,-1,-5,0,-6,0,-3
1676113655946280,4,-2,1,3,0,6,2,2
1676113655946280,0,6,2,4,4,4,-2,2
1676113655968267,2,7,1,-3,-3,-6,-5,-3
1676113655968267,0,-8,-3,-6,-2,-6,-1,-3
1676113655969266,-2,1,3,4,0,3,2,1
1676113655969266,0,-6,-2,-1,0,2,1,0
1676113655982259,-4,5,-1,-6,-2,-6,-3,-5
1676113655982259,0,2,-10,-4,-2,-7,-1,-5
1676113655990254,-1,-15,-7,-1,0,5,0,1
1676113655990254,-3,3,3,1,2,1,0,0
1676113656005246,1,11,5,-2,-3,-7,-1,-2
1676113656005246,-7,-2,1,-3,0,-5,0,-4
1676113656006247,2,-3,1,1,1,6,-2,1
1676113656006247,-3,-2,-7,3,5,1,0,1
1676113656035229,1,3,1,-1,-3,-6,-1,-4
1676113656035229,4,5,3,-9,-8,-3,0,-2
1676113656036227,-3,-8,-5,3,3,5,0,3
1676113656036227,-1,8,2,1,1,0,-3,1
1676113656042224,-2,-7,-4,-4,0,-5,-1,-2
1676113656042224,1,-9,-4,-2,-1,-3,-1,-1
1676113656050220,-1,-1,-1,0,-1,3,-2,2
1676113656050220,0,-3,-5,2,-2,2,-1,2
1676113656065212,0,13,4,0,-3,-5,-1,-3
1676113656065212,3,-5,0,-2,-4,-3,0,-2
1676113656066212,-3,-5,-5,0,-1,5,1,1
1676113656066212,-1,2,2,0,0,-3,-2,0
1676113656088199,-2,-4,-1,-3,-3,-5,0,-1
1676113656088199,0,7,5,-1,-2,-3,-2,0
1676113656089200,0,-5,-1,2,1,5,-1,1
1676113656089200,-1,-7,-4,1,0,-1,2,-3
1676113656102190,-2,-2,-3,-6,-3,-4,1,-5
1676113656102190,2,3,2,-2,0,-3,-1,-1
1676113656110186,0,5,3,5,1,4,-2,3
1676113656110186,-3,4,1,-1,-2,-4,-3,-1
1676113656125180,1,-12,-3,-3,-3,-3,1,-2
1676113656125180,1,-3,-1,-1,0,2,-1,1
1676113656126177,0,2,-7,-1,2,4,-1,3
1676113656126177,-3,-2,2,2,-6,-1,0,0
1676113656148165,-2,-2,-7,-7,-1,-6,-1,-4
1676113656148165,4,-1,1,1,2,0,-1,2
1676113656149164,1,1,4,2,1,3,0,3
1676113656149164,-1,1,-5,0,0,-1,-1,-3
1676113656171150,-4,-4,-6,-3,-3,-3,-2,-2
1676113656171150,1,-4,-5,-1,-3,5,0,2
1676113656171150,-1,2,4,2,2,7,-1,2
1676113656171150,-3,-1,0,-1,0,-4,0,-3
1676113656185146,-2,-1,1,0,-3,-1,-2,-5
1676113656185146,0,0,-1,1,2,1,1,-1
1676113656186143,3,4,-1,3,2,5,1,2
1676113656186143,-1,-12,-2,-4,-4,-3,-1,-3
1676113656208131,0,3,-2,-4,-3,-3,-2,0
1676113656208131,-1,2,-1,2,-1,4,-1,1
1676113656209129,-2,2,-1,3,2,3,-1,3
1676113656209129,-2,3,1,-1,-1,-6,-2,-3
1676113656231121,-1,-8,0,-4,-3,-3,-1,-1
1676113656231121,-1,1,-2,2,2,5,0,3
1676113656231121,-1,4,0,3,-1,4,0,1
1676113656231121,1,-1,1,-4,0,-8,-2,-2
1676113656245110,-1,5,-5,-5,-2,-1,0,-1
1676113656245110,-1,-9,-2,3,4,6,1,1
1676113656246109,0,-3,-1,5,2,3,1,0
1676113656246109,-1,6,-3,-6,-4,-9,-1,-3
1676113656268095,1,0,2,-3,-2,-4,0,0
1676113656268095,0,-6,-1,7,5,6,-1,3
1676113656269095,-1,1,1,5,2,1,0,0
1676113656269095,-1,-1,-3,-10,-4,-7,0,-4
1676113656291083,-1,1,-2,-1,-1,-3,-2,-3
1676113656291083,2,1,2,3,2,6,-1,3
1676113656291083,-2,-5,1,3,0,2,0,1
1676113656291083,-1,3,3,-1,-2,-4,-3,-4
1676113656305076,-2,-4,-2,-2,-1,-1,-3,-1
1676113656305076,-2,0,0,4,0,7,2,2
1676113656306074,-1,-1,-6,-5,1,0,0,-1
1676113656306074,0,-5,-3,-4,-3,-8,-2,-4
1676113656328062,-2,-4,2,1,-2,-2,0,-2
1676113656328062,1,6,1,5,2,7,0,6
1676113656329062,-1,6,1,3,1,3,-2,2
1676113656329062,0,-13,0,-5,-4,-7,-1,-3
1676113656351049,0,4,1,-1,-1,0,1,-1
1676113656351049,1,3,-1,2,1,8,0,3
1676113656351049,-3,-4,-5,0,2,1,-2,0
1676113656351049,-1,6,2,-8,-3,-8,-3,-6
1676113656365039,0,-6,-4,3,0,0,-1,-4
1676113656365039,1,-3,-2,1,1,7,2,4
1676113656366039,1,1,0,1,1,1,-1,1
1676113656366039,-1,1,3,-5,-1,-8,-3,-3
1676113656388029,-2,-2,2,-3,-2,-1,1,-2
1676113656388029,1,-1,0,5,3,8,-1,3
1676113656389026,1,-4,-9,-1,1,4,-2,0
1676113656389026,-3,-2,0,-4,-4,-8,0,-5
1676113656411014,-2,7,-2,-2,-2,-3,-2,3
1676113656411014,1,2,4,7,3,8,0,5
1676113656411014,0,-16,-2,3,1,2,1,-1
1676113656411014,-5,4,-3,-7,-3,-9,-2,-6
1676113656425007,2,0,1,-3,-1,-2,-2,-1
1676113656425007,-1,-1,-1,2,3,6,1,4
1676113656426006,0,1,3,6,2,2,-1,1
1676113656426006,-4,-2,-4,-2,-3,-7,-3,-4
1676113656447993,-1,3,3,-3,-4,-5,-1,-1
1676113656447993,-1,0,-4,2,2,6,0,3
1676113656448992,0,-10,-1,0,3,1,-2,3
1676113656448992,-3,-1,-4,-3,-5,-6,0,-4
1676113656470983,0,4,-1,0,-1,-1,-2,-2
1676113656470983,2,5,-2,-2,2,8,0,2
1676113656470983,-2,1,-2,-1,0,2,0,0
1676113656470983,1,-8,-3,-2,-3,-6,-3,-4
1676113656483972,0,-8,1,-2,0,-3,2,0
1676113656483972,0,2,-3,2,-1,7,2,2
1676113656492968,0,5,4,1,0,3,0,-1
1676113656492968,-1,2,0,-4,-5,-8,-2,-3
1676113656507957,-3,-2,-2,-1,-2,0,-1,-1
1676113656507957,0,-5,1,5,3,5,-2,4
1676113656509957,0,-1,0,3,2,1,0,1
1676113656509957,0,-5,-1,-3,-2,-9,1,-3
1676113656530945,1,4,0,-2,-4,-2,-1,-2
1676113656530945,1,-1,0,5,5,3,0,3
1676113656531946,-1,-7,0,1,-2,2,-1,0
1676113656531946,1,-1,0,-6,-4,-6,-1,-4
1676113656543938,0,-5,-7,-5,-1,-1,1,-1
1676113656543938,0,-1,-2,3,2,5,0,2
1676113656552933,2,6,5,2,1,1,-1,2
1676113656552933,-2,1,-2,-4,-4,-6,0,-3
1676113656567925,1,1,-3,-3,0,-2,1,1
1676113656567925,0,-2,2,4,3,6,1,4
1676113656569923,-3,-2,-1,3,3,4,0,0
1676113656569923,-2,-4,-5,-6,-2,-7,-1,-4
1676113656590912,1,7,6,-2,-1,-2,0,0
1676113656590912,1,-6,-2,5,0,7,-1,4
1676113656592911,-2,-7,-6,-1,1,2,-1,1
1676113656592911,-2,1,1,-5,-3,-4,0,-3
1676113656603903,1,-1,-3,-2,1,-4,-1,-3
1676113656603903,2,5,2,2,3,7,-1,0
1676113656613898,-4,-9,-2,0,0,1,-2,-1
1676113656613898,2,9,2,-1,-1,-7,-3,-1
1676113656627892,-1,-1,-1,-4,-3,-3,2,-1
1676113656627892,-1,1,3,2,2,5,0,3
1676113656629889,0,2,-1,1,1,3,0,-1
1676113656629889,-2,-5,-3,-4,-4,-5,-3,-4
1676113656650877,-2,-3,0,-1,-3,-5,-2,-5
1676113656650877,0,2,0,1,0,6,2,2
1676113656651877,1,-1,1,2,2,4,-1,2
1676113656651877,-1,2,4,-4,-2,-6,-1,-3
1676113656663870,-2,-6,-5,-2,-2,-4,-3,-3
1676113656663870,-1,-6,-4,-3,-3,4,-2,2
1676113656672865,1,7,1,9,8,3,0,2
1676113656672865,-2,-1,1,-4,-2,-5,-1,-2
1676113656687856,-4,-11,-3,-2,-2,-4,0,-3
1676113656687856,-1,3,-3,-1,1,4,0,2
1676113656689855,1,0,0,1,0,2,-2,0
1676113656689855,0,1,-1,-4,-3,-7,-2,-3
1676113656710843,-2,2,-1,-1,0,-3,0,-2
1676113656710843,-1,-5,1,6,-2,5,0,0
1676113656712841,-1,1,2,2,-1,3,-1,3
1676113656712841,-2,-2,-10,-5,-1,-6,0,-3
1676113656724836,2,3,4,-4,-3,-2,0,-4
1676113656724836,-1,-2,0,4,4,2,1,0
1676113656733831,-1,-6,-2,1,2,2,-2,1
1676113656733831,-1,-3,-4,-4,-5,-4,-2,-4
1676113656747823,-3,4,-6,-2,-2,-2,-3,-4
1676113656747823,2,-3,4,3,3,4,-1,2
1676113656749820,1,2,0,2,1,4,0,0
1676113656749820,-2,2,2,-2,-1,-4,-1,-2
1676113656770810,0,-4,1,-4,-5,-5,-1,0
1676113656770810,-1,3,2,4,3,4,-1,1
1676113656772807,0,-3,-4,-1,1,0,-3,0
1676113656772807,-1,-1,0,-2,-1,-5,-2,-5
1676113656784801,2,5,2,-4,-5,-4,-1,-2
1676113656784801,-3,-7,-7,-2,0,4,1,2
1676113656793797,2,-1,1,3,1,2,-1,2
1676113656793797,-2,2,5,-1,-2,-6,-1,-1
1676113656807789,-2,-4,-3,-8,-4,-5,-3,-3
1676113656807789,2,-6,-2,2,1,4,2,3
1676113656809787,0,4,2,1,-1,6,-3,1
1676113656809787,1,-1,-1,3,3,-5,0,-2
1676113656830774,-3,2,2,-4,-6,-4,-2,-3
1676113656830774,0,-7,-4,-1,-1,3,-1,2
1676113656832773,-1,6,0,1,2,4,0,0
1676113656832773,-2,-1,2,-4,-4,-5,1,-4
1676113656844765,0,-1,-1,-2,-2,-5,1,-3
1676113656844765,1,4,0,4,2,4,-1,3
1676113656853762,-1,-2,-3,1,2,1,-2,4
1676113656853762,-4,-3,-1,-4,-1,-7,-4,-2
1676113656867753,-2,0,-3,-2,-1,-4,-2,-2
1676113656867753,2,0,0,1,2,4,3,1
1676113656869751,-2,-2,-2,5,3,6,2,2
1676113656869751,-1,2,2,-4,-3,-2,-1,-2
1676113656890741,-3,-4,-1,1,-1,-7,0,-2
1676113656890741,0,-4,-2,1,1,4,-2,2
1676113656892740,-2,0,-2,0,2,3,0,3
1676113656892740,-1,6,-2,-2,-2,-4,0,-3
1676113656904732,-1,-10,2,-5,-2,-8,0,-3
1676113656904732,0,-2,0,3,3,2,-2,1
1676113656913727,-1,2,-3,4,-1,4,2,1
1676113656913727,-3,-1,0,-4,-2,-4,-2,-3
1676113656927719,1,5,-7,-3,-1,-5,-1,-3
1676113656927719,-2,-3,-6,-2,0,3,0,0
1676113656929719,2,-2,2,2,2,1,0,1
1676113656929719,0,1,-2,-1,-3,-5,-1,-3
1676113656950706,-2,-1,4,-3,-4,-7,-3,-4
1676113656950706,-1,-1,-2,2,1,4,-1,0
1676113656952705,0,-2,2,2,1,3,0,1
1676113656952705,1,-1,-4,-6,-4,-6,-1,-2
1676113656964699,-1,7,-1,-3,-1,-5,-1,-3
1676113656964699,-1,-1,2,-1,-1,2,-2,3
1676113656973694,-4,-16,-1,1,1,2,1,1
1676113656973694,1,1,-1,-3,-3,-4,0,-4
1676113656988684,0,3,1,-4,-3,-5,0,-5
1676113656988684,2,5,2,4,2,5,0,3
1676113656989683,0,-1,-2,3,4,9,-1,3
1676113656989683,-2,-9,1,1,1,-1,-3,-1
1676113657010671,-2,1,-2,-3,-3,-2,0,-3
1676113657010671,2,-1,-3,4,3,7,-2,3
1676113657012671,1,3,0,4,2,2,-2,2
1676113657012671,-3,-5,-3,-3,0,-2,-1,0
1676113657024666,-4,-9,-1,-3,-5,-4,-3,-2
1676113657024666,3,8,2,4,1,4,0,2
1676113657033661,-2,6,-2,2,1,1,0,0
1676113657033661,-4,-7,-2,-6,-5,-7,-2,-5
1676113657048652,0,-6,-1,-4,-5,-6,-1,-2
1676113657048652,-3,-1,-4,-2,0,5,1,1
1676113657049649,2,0,-4,3,1,1,-1,2
1676113657049649,-1,6,-1,-1,-3,-4,0,-4
1676113657070641,-3,0,9,-4,-4,-6,-1,-5
1676113657070641,0,1,-4,-1,1,3,-2,0
1676113657072637,0,3,-4,3,1,4,-2,-1
1676113657072637,-3,-17,-2,-5,-5,-5,-1,-4
1676113657084630,0,2,-9,-8,-3,-9,-2,-4
1676113657084630,1,8,7,4,0,4,2,2
1676113657093624,0,-2,2,0,2,6,0,1
1676113657093624,-2,1,-2,-2,-2,-6,-3,-3
1676113657108615,-1,1,0,-1,-3,-7,0,-3
1676113657108615,0,0,1,2,0,4,2,2
1676113657109615,0,4,2,1,3,2,-2,3
1676113657109615,0,-5,-4,-3,-2,-5,-2,-2
1676113657130603,-3,-13,-4,-4,-2,-6,-1,-4
1676113657130603,-3,1,-5,-1,1,3,1,3
1676113657132602,-1,1,-1,4,2,2,-1,-1
1676113657132602,-1,8,1,-6,-1,-3,-2,-4
1676113657153592,0,5,3,-2,-4,-6,-1,-3
1676113657153592,-2,-18,-1,1,2,4,1,2
1676113657154589,-4,-1,-3,0,0,4,-2,2
1676113657154589,-1,3,-2,-1,-1,-5,-2,-3
1676113657168584,-2,3,-4,-1,-3,-7,-2,-5
1676113657168584,1,5,6,2,1,2,0,-1
1676113657169581,-1,-4,-6,-3,0,1,-3,2
1676113657169581,-3,-5,-3,-5,-3,-2,-1,-3
1676113657190569,-5,-16,0,-6,-6,-9,-2,-3
1676113657190569,-1,9,-2,3,0,4,-2,2
1676113657192569,-2,2,2,4,2,2,1,1
1676113657192569,0,2,1,-2,-2,-9,-4,-3
1676113657213556,0,4,3,-6,-3,-8,0,-5
1676113657213556,2,-6,0,2,1,1,0,2
1676113657214555,-2,-4,-1,0,0,1,-1,0
1676113657214555,0,-1,-1,-3,-1,-5,0,-2
1676113657228547,-1,1,-3,-5,-4,-7,1,-6
1676113657228547,-1,-4,-5,-2,-1,6,0,1
1676113657229547,0,-1,2,3,2,1,-2,-1
1676113657229547,-1,3,2,-3,-2,-7,-2,-2
1676113657250536,-3,4,-4,-6,-5,-9,-1,-2
1676113657250536,0,2,-3,3,0,-1,1,-2
1676113657252534,-2,-12,-1,0,-1,0,-2,1
1676113657252534,-3,-17,-5,-3,-4,-7,0,-3
1676113657273521,2,15,1,-4,-4,-6,-2,-4
1676113657273521,1,5,3,4,1,6,-1,2
1676113657274520,0,5,2,3,2,-1,0,1
1676113657274520,-1,2,-3,-3,-3,-6,-2,-3
1676113657287514,0,-7,1,-5,-4,-6,0,-2
1676113657287514,-3,-4,-1,3,1,5,0,2
1676113657294510,0,-3,-7,-4,0,3,0,0
1676113657294510,-2,1,2,-3,-4,-5,-1,-1
1676113657310500,2,6,0,-4,-3,-6,-2,-4
1676113657310500,-1,-3,3,4,0,5,1,3
1676113657312499,1,-12,-1,4,2,2,0,2
1676113657312499,-3,5,-7,-4,-3,-3,2,-4
1676113657333488,-2,-9,4,-6,-2,-4,-1,-4
1676113657333488,1,6,-1,3,2,3,-1,2
1676113657334488,0,5,3,4,1,3,1,1
1676113657334488,-2,-1,0,-2,-3,-3,-2,-2
1676113657347480,-3,-2,-3,-2,-3,-5,-3,-3
1676113657347480,3,7,2,3,2,5,-1,1
1676113657354475,-1,2,0,0,2,1,0,0
1676113657354475,1,-17,3,-5,-3,-5,-2,-4
1676113657378463,-4,-5,-14,-9,-5,-8,2,-5
1676113657378463,1,-6,-1,4,2,3,0,1
1676113657379462,-3,10,2,1,0,1,0,1
1676113657379462,-1,8,4,-2,0,-4,-2,-2
1676113657393453,-1,-2,0,-5,-4,-6,-3,-2
1676113657393453,-1,-2,0,2,2,2,-1,2
1676113657394452,-1,-4,0,3,1,2,0,1
1676113657394452,-3,-3,-3,-7,-4,-4,-1,-4
1676113657406445,0,-2,-4,-7,-4,-4,-2,-2
1676113657406445,0,2,1,6,0,5,-1,5
1676113657415443,-1,-4,4,3,0,0,-2,0
1676113657415443,-2,-1,-1,-1,-3,-5,-3,-2
1676113657430432,0,-4,-4,-6,-2,-6,2,-4
1676113657430432,-1,1,0,0,2,6,-1,2
1676113657432432,-3,-3,2,6,2,2,-2,0
1676113657432432,0,6,1,-6,-2,-10,0,-4
1676113657453418,1,7,-4,-8,-4,-2,-3,-3
1676113657453418,-2,-13,-8,-1,1,4,3,3
1676113657454417,-1,-13,-4,-2,-1,-4,-1,0
1676113657454417,-3,8,-2,-1,-2,-1,-2,-4
1676113657466412,-3,3,7,4,-1,-7,-2,-4
1676113657466412,2,6,4,2,3,8,0,0
1676113657475408,1,-1,-8,-5,-1,0,0,-1
1676113657475408,-1,-11,-5,-4,-3,-10,-1,-3
1676113657490397,-2,2,0,-7,-4,-5,-2,-3
1676113657490397,1,-2,5,3,3,1,-1,2
1676113657492396,-4,1,5,1,0,2,1,-1
1676113657492396,0,-1,-2,-4,-2,-4,-1,-3
1676113657513386,0,1,-1,-1,-6,-10,-1,-1
1676113657513386,-1,0,-3,1,1,5,-1,3
1676113657514385,-2,-2,1,0,2,-1,-2,-1
1676113657514385,0,-8,-1,-4,-2,-2,0,-2
1676113657526377,-1,3,-6,-4,-4,-5,-2,-5
1676113657526377,0,-4,-2,1,-2,0,-1,2
1676113657535375,-1,2,2,4,-1,-1,-1,0
1676113657535375,-3,2,-5,-6,-3,-6,-4,-4
1676113657550365,0,-6,4,-2,0,-8,1,-5
1676113657550365,0,-2,-1,3,4,9,0,1
1676113657552364,0,0,-6,0,0,-4,0,0
1676113657552364,0,3,4,-1,-3,0,0,-2
1676113657573351,1,-1,3,-3,-1,-3,1,1
1676113657573351,0,2,10,19,3,-4,-1,1
1676113657574350,-1,-2,11,-3,1,-1,-1,-1
1676113657574350,0,-2,-40,-32,-8,-7,-1,-3
1676113657586344,0,5,8,0,-1,-5,-1,-1
1676113657586344,0,7,24,14,2,15,1,2
1676113657595338,-1,-6,-10,-4,1,-2,-1,0
1676113657595338,-7,-22,-30,-19,-6,-11,-4,-5
1676113657610331,0,5,3,-2,0,0,1,-2
1676113657610331,-2,0,-6,1,-3,-5,-2,1
1676113657612328,2,7,20,16,4,2,-1,-1
1676113657612328,2,5,12,5,2,-2,1,-2
1676113657633316,0,-5,-7,-3,-1,-1,0,0
1676113657633316,0,1,4,2,5,8,-1,3
1676113657635315,-2,-2,-8,-5,-2,-2,-3,-1
1676113657635315,0,-3,2,-2,-3,-9,-2,-1
1676113657655303,0,-1,8,9,-4,-4,-1,-3
1676113657655303,0,-1,-7,-12,0,2,2,2
1676113657657302,-1,-1,-11,-2,4,-3,-2,-1
1676113657657302,0,9,31,23,-5,-6,1,-4
1676113657670296,-2,-2,7,10,-6,-4,-3,-2
1676113657670296,-3,-19,-80,-13,-2,4,-2,1
1676113657672295,1,3,18,-16,4,1,-2,0
1676113657672295,-6,-10,-38,-31,-11,-11,-4,-5
1676113657692284,3,9,34,42,-1,-4,2,-2
1676113657692284,-2,3,46,30,2,-1,-1,0
1676113657701278,3,4,7,-5,10,2,2,1
1676113657701278,-3,2,31,-7,2,-1,-5,-4
1676113657707275,-1,-4,1,-19,-3,-2,1,-1
1676113657707275,3,5,22,17,4,1,-1,2
1676113657716269,-3,-4,-14,-8,-6,-2,3,1
1676113657716269,1,12,24,16,5,-1,-1,-2
1676113657730261,-3,-7,-25,-12,0,-2,-5,-3
1676113657730261,0,6,16,14,5,4,-1,15
1676113657732259,-6,-3,-6,1,-11,-12,-2,-13
1676113657732259,1,-3,-21,-11,0,0,3,-9
1676113657753247,-1,-3,-7,-9,-4,-3,-1,-1
1676113657753247,-1,-4,-3,-10,1,2,1,2
1676113657755249,-1,-6,-29,-10,-5,-6,-5,2
1676113657755249,1,4,-4,-4,-3,-5,1,0
1676113657767239,1,6,31,19,0,-4,-2,-4
1676113657767239,-3,-11,-43,-36,-2,6,0,0
1676113657776234,-1,-6,-13,-5,-6,-3,-1,-2
1676113657776234,3,12,41,19,3,-6,2,-3
1676113657790227,-1,3,3,-12,0,-1,2,3
1676113657790227,0,-3,-1,-4,0,5,-1,1
1676113657792226,-2,0,12,15,4,0,-2,-2
1676113657792226,0,0,-5,-2,-2,-7,1,0
1676113657813214,1,-3,-14,-16,-1,-1,0,3
1676113657813214,1,0,5,7,3,3,0,1
1676113657815212,-6,-8,-6,-2,-4,-7,-2,-3
1676113657815212,-2,4,-2,-7,-8,-8,-1,-4
1676113657827205,0,-6,-15,-11,-1,0,1,0
1676113657827205,0,3,5,5,3,7,-1,-2
1676113657836202,-2,1,4,5,-3,-12,-1,-2
1676113657836202,-1,0,6,4,2,2,0,-7
1676113657850194,1,0,-10,-8,0,9,-2,14
1676113657850194,0,-5,-8,-3,2,1,0,11
1676113657852191,-1,3,15,6,2,-2,-1,-1
1676113657852191,0,-5,-10,-9,-6,-8,-1,-5
1676113657873181,0,2,-7,-6,-3,-4,2,-9
1676113657873181,0,-1,8,11,2,4,-3,0
1676113657875179,-3,-5,-4,-11,1,-3,-3,-1
1676113657875179,-3,2,0,5,-2,-10,-2,0
1676113657887172,-3,-5,-14,-20,-6,1,-1,0
1676113657887172,3,-9,-1,-3,0,8,1,2
1676113657896166,-2,3,3,5,-1,-4,-2,-4
1676113657896166,-1,0,0,-3,-3,0,-3,-4
1676113657910158,0,6,8,3,2,-4,2,1
1676113657910158,-2,5,2,4,2,4,-2,1
1676113657912156,0,-3,-7,-5,-4,-2,-2,-4
1676113657912156,-3,-3,3,-2,-4,-8,1,0
1676113657933144,2,1,2,3,-2,-2,-2,-1
1676113657933144,-1,0,-8,-2,3,7,2,0
1676113657935144,-3,0,-1,0,-2,-4,1,-2
1676113657935144,-2,-10,-5,-7,-4,-9,-1,0
1676113657947136,1,-2,0,-1,-1,2,-1,-2
1676113657947136,1,1,9,7,2,3,0,0
1676113657956132,-2,2,0,-7,-1,-3,-3,0
1676113657956132,0,3,-3,-5,-4,-12,-3,0
1676113657978122,1,-6,3,7,0,7,-1,-1
1676113657978122,-1,-4,-5,3,4,6,0,2
1676113657980118,-1,1,-1,-5,-1,-3,0,-2
1676113657980118,-1,-2,-3,-5,-3,-2,-1,-3
1676113657993110,-1,-2,0,-1,-6,-4,-2,-1
1676113657993110,-1,-4,-25,-13,-3,8,-2,0
1676113657995110,-1,0,4,3,-3,0,2,-3
1676113657995110,0,0,6,5,4,-8,-2,-3
1676113658007103,0,-3,0,-5,-2,0,-3,2
1676113658007103,-4,-1,-5,0,0,3,1,3
1676113658016097,0,-2,2,-6,-2,-7,-2,-4
1676113658016097,1,6,0,3,-7,-6,-1,0
1676113658030089,0,-4,3,0,5,6,1,2
1676113658030089,0,3,10,8,5,0,2,1
1676113658037086,-1,0,-2,6,5,-5,0,-3
1676113658037086,1,4,10,-3,-5,-5,-1,-1
1676113658053076,-2,-7,-25,-19,-6,1,-2,2
1676113658053076,-1,-2,-2,1,1,0,-1,1
1676113658055077,-1,0,5,2,1,-4,0,-4
1676113658055077,-1,-3,-1,2,0,1,-2,-3
1676113658076064,1,5,14,11,4,3,1,4
1676113658076064,-1,-3,-7,4,6,3,-1,0
1676113658077062,0,-7,-3,-11,-10,-14,-3,-5
1676113658077062,-1,0,-1,-7,-6,-8,0,-1
1676113658090055,2,6,3,7,2,11,-1,3
1676113658090055,0,-5,16,14,3,6,1,2
1676113658097051,-2,0,-25,-20,-6,-16,-3,-6
1676113658097051,-2,-2,-11,-13,-4,-6,0,-3
1676113658113042,1,0,-4,8,3,4,3,1
1676113658113042,2,9,15,14,5,3,-2,2
1676113658115042,0,-4,2,-3,-6,-12,-1,-6
1676113658115042,-4,-7,-10,-14,-6,-5,-1,-4
1676113658136028,2,5,5,5,0,11,1,6
1676113658136028,-2,-3,-6,1,5,0,1,3
1676113658137028,-3,-3,0,-4,-4,-6,-2,-2
1676113658137028,-3,0,-6,-4,-3,-6,-2,-3
1676113658151020,3,-1,2,7,2,5,0,3
1676113658151020,0,-2,-1,0,3,4,-1,2
1676113658152020,-2,-2,-4,-4,-5,-9,-2,-5
1676113658152020,0,1,5,1,-3,1,1,-2
1676113658173007,0,-3,-5,-2,0,2,0,3
1676113658173007,0,0,-3,0,2,1,-1,5
1676113658175008,-5,4,7,0,-3,-10,-3,-2
1676113658175008,0,-5,-2,2,-3,-3,-1,-4
1676113658195993,-2,-2,-8,-6,3,8,-1,2
1676113658195993,1,3,6,2,2,2,-1,1
1676113658196993,-1,1,-4,-5,-4,-7,-1,-3
1676113658196993,-1,1,-1,-3,-1,-2,-2,-1
1676113658209988,0,0,-4,0,4,2,0,4
1676113658209988,1,-1,0,8,1,6,-2,4
1676113658216983,-1,-6,-1,-3,-2,-1,-4,-5
1676113658216983,0,-4,4,-5,-2,-7,-1,-4
1676113658232973,1,-2,-13,-7,-1,3,0,1
1676113658232973,1,1,2,6,-1,5,-1,4
1676113658234972,-1,-2,1,-2,-2,-8,-2,-2
1676113658234972,1,0,-1,-3,-1,-4,-2,-2
1676113658255964,1,0,3,8,3,4,-2,4
1676113658255964,1,-1,-2,0,2,4,2,2
1676113658256960,-3,-2,-2,-3,-4,-7,-1,-4
1676113658256960,-2,-1,-1,-4,-5,-6,0,-3
1676113658269952,0,1,3,6,0,7,0,2
1676113658269952,-1,-2,-4,3,6,5,0,3
1676113658276950,0,0,-2,-2,-6,-10,-1,-4
1676113658276950,1,-1,-3,-8,-5,-7,-2,-3
1676113658292943,1,0,2,6,5,11,0,3
1676113658292943,-1,1,-1,3,3,4,0,3
1676113658298936,-3,0,0,-4,-1,-9,-3,-5
1676113658298936,-3,-1,1,-7,-4,-1,1,-1
1676113658315929,-1,-2,-2,6,3,5,1,1
1676113658315929,3,-2,1,2,1,4,-2,3
1676113658316926,-3,-1,3,-4,-4,-7,-2,-2
1676113658316926,-1,1,4,2,-2,-8,-1,-3
1676113658329917,-1,2,2,0,2,4,1,4
1676113658329917,-1,-3,-2,5,0,7,0,3
1676113658336914,-2,1,2,-3,-3,-7,-1,-3
1676113658336914,0,0,-2,-4,-4,-5,0,-2
1676113658352905,1,2,5,5,1,8,3,3
1676113658352905,1,1,0,2,1,3,1,4
1676113658354903,-2,-1,-2,-5,-1,-8,-1,-5
1676113658354903,-2,0,1,-3,-3,-4,0,-5
1676113658375893,2,-1,-6,1,1,4,-1,3
1676113658375893,-1,1,3,5,0,4,-1,4
1676113658376893,-3,-2,-8,-4,-2,-7,0,-5
1676113658376893,-1,-2,1,-5,-5,-7,-2,-2
1676113658389887,1,1,-2,3,1,3,4,-1
1676113658389887,0,-3,-6,2,3,6,-2,1
1676113658396879,0,-1,1,-5,-3,-9,0,-6
1676113658396879,-1,-2,-5,-4,-3,-6,0,-2
1676113658412873,2,-1,4,5,1,6,-2,5
1676113658412873,1,-2,1,3,3,3,0,3
1676113658414870,-3,-3,-7,-7,-5,-5,-2,-3
1676113658414870,-2,-1,-1,-5,0,-6,-1,-4
1676113658435857,1,2,2,11,4,5,-1,4
1676113658435857,-2,1,3,0,2,3,2,1
1676113658436858,0,1,-2,-5,-3,-6,-3,-4
1676113658436858,0,-1,-1,-2,-4,-5,-1,-2
1676113658449852,0,-2,3,2,2,6,-2,1
1676113658449852,1,-2,-5,2,4,4,0,1
1676113658456850,-2,-1,4,-4,-2,-8,-2,-4
1676113658456850,-3,0,-7,-8,-5,-7,-2,-2
1676113658472836,1,-1,2,3,2,6,0,5
1676113658472836,-2,-3,3,4,2,6,1,1
1676113658474836,0,0,0,-5,-4,-10,-3,-4
1676113658474836,0,-1,-4,-3,-1,-3,0,-3
1676113658495823,-1,-1,0,4,2,6,-1,3
1676113658495823,0,0,0,3,0,4,-2,1
1676113658496823,-3,-3,-11,-8,-4,-5,-1,-3
1676113658496823,-1,0,0,-2,0,-3,0,-3
1676113658509815,0,-1,1,2,2,7,0,4
1676113658509815,1,-3,-10,-3,1,5,1,0
1676113658516811,-2,-1,-3,-3,-4,-10,-1,-4
1676113658516811,2,-2,-1,-2,-3,-5,-1,-3
1676113658533800,-1,-1,-1,2,1,4,1,3
1676113658533800,1,2,4,10,4,4,-3,3
1676113658534801,-4,-4,-4,-4,-3,-7,0,-2
1676113658534801,-1,-1,-1,-7,-5,-4,0,0
1676113658555789,0,0,-3,3,3,5,1,2
1676113658555789,-1,-3,1,1,2,5,-2,2
1676113658557788,0,0,3,-3,-3,-10,-1,-2
1676113658557788,-2,-1,3,-1,-3,-3,-2,-3
1676113658568781,0,1,-3,1,3,5,2,2
1676113658568781,2,-1,-12,0,2,4,0,2
1676113658578776,-1,0,1,-4,-3,-6,-2,-5
1676113658578776,-1,-3,-3,-5,-3,-8,-1,-3
1676113658592770,1,0,6,7,2,8,2,3
1676113658592770,-2,-5,-12,-1,2,4,-1,1
1676113658594767,-1,-1,2,-5,-2,-8,-1,-3
1676113658594767,-1,2,-2,-2,-3,-5,-2,-5
1676113658615755,0,-2,-2,2,1,3,0,2
1676113658615755,-2,1,5,4,2,4,0,3
1676113658616755,-2,0,1,-7,-4,-5,-1,-4
1676113658616755,-4,-1,-4,0,-3,-6,-2,-2
1676113658629747,1,-1,-1,5,2,6,1,4
1676113658629747,2,0,2,2,3,4,-1,1
1676113658638742,-2,1,0,-4,-3,-7,-2,-5
1676113658638742,-1,-2,0,-5,-5,-4,0,-4
1676113658652735,0,-1,-3,6,1,5,-1,4
1676113658652735,0,0,2,2,1,3,0,3
1676113658654735,-1,-1,1,-4,-3,-7,-2,-6
1676113658654735,-2,-2,-6,-6,-3,-6,0,-2
1676113658675720,1,-3,1,6,3,6,-2,2
1676113658675720,2,-2,6,5,1,2,-2,2
1676113658677720,-2,0,-2,-2,-1,-9,-1,-5
1676113658677720,-3,0,1,-4,-2,-4,0,-4
1676113658689712,0,-1,-3,-2,2,8,-1,4
1676113658689712,-1,-1,0,0,-1,2,-2,1
1676113658697707,-1,-1,-1,-1,-4,-7,-4,-3
1676113658697707,-1,-2,-2,-4,-3,-6,0,-3
1676113658713698,0,-2,-5,1,0,5,1,5
1676113658713698,-2,0,-2,3,3,2,-2,2
1676113658714698,-1,-1,-1,-7,-4,-7,1,-4
1676113658714698,-1,1,4,0,-2,-5,-1,-3
1676113658735685,3,-1,1,4,4,10,2,4
1676113658735685,-1,-1,1,3,1,2,0,0
1676113658736685,-3,-2,0,-4,-5,-7,-2,-3
1676113658736685,0,-1,-4,-5,-3,-7,-2,-5
1676113658749678,-1,0,-4,1,2,5,0,3
1676113658749678,1,-1,-3,5,0,2,-1,2
1676113658758673,0,1,1,-5,-4,-7,-1,-5
1676113658758673,0,-1,2,-2,-4,-2,-1,-3
1676113658772666,2,-1,-1,3,4,8,1,3
1676113658772666,-1,0,4,6,4,2,-1,1
1676113658774665,-3,0,-1,-5,-3,-5,-3,-3
1676113658774665,-1,-3,-1,-8,-2,-8,-1,-3
1676113658795651,1,0,-5,1,1,5,0,2
1676113658795651,-1,-3,-6,4,4,3,0,3
1676113658797652,0,0,1,-2,-4,-9,0,-6
1676113658797652,-3,-2,-9,-8,-2,-7,-1,-4
1676113658809644,1,1,2,5,2,5,0,4
1676113658809644,-1,-1,0,0,1,1,-1,-1
1676113658818639,-2,-1,2,-3,-2,-8,-1,-1
1676113658818639,1,0,1,-1,-2,-4,0,-3
1676113658832631,0,-3,-5,2,2,6,0,3
1676113658832631,0,-2,1,4,1,2,1,-1
1676113658834630,1,0,1,-3,-2,-7,-1,-6
1676113658834630,1,0,1,-4,-4,-7,-1,-4
1676113658855622,2,-2,-1,3,2,5,-3,1
1676113658855622,-1,1,1,2,2,1,1,1
1676113658857617,-2,-5,-12,-10,-4,-8,0,-5
1676113658857617,-3,1,1,-3,-3,-6,1,0
1676113658869613,0,0,3,6,3,10,2,5
1676113658869613,0,-2,0,0,1,1,0,1
1676113658878604,1,0,0,-5,-3,-8,-3,-6
1676113658878604,0,0,0,-3,-5,-5,-1,-5
1676113658892597,2,1,-1,6,6,7,-3,-1
1676113658892597,-2,-1,1,2,0,1,-1,1
1676113658894596,-3,-1,-1,-3,-4,-8,0,-4
1676113658894596,-2,-2,-3,-2,-3,-4,-1,-4
1676113658915584,0,2,1,2,3,5,0,3
1676113658915584,1,-1,2,1,0,2,1,3
1676113658917582,-4,-4,-5,-6,-4,-10,-2,-5
1676113658917582,0,1,2,-2,-5,-6,0,-3
1676113658929575,-3,-1,-3,3,2,5,0,3
1676113658929575,-3,0,-3,-2,0,1,-3,0
1676113658938571,-1,-1,4,-6,-3,-7,-2,-4
1676113658938571,-1,-1,1,-2,-2,-7,-3,-4
1676113658953562,0,-2,4,5,2,6,2,2
1676113658953562,-1,0,-6,0,0,1,-2,0
1676113658954562,-1,-2,-6,-3,-4,-5,2,-1
1676113658954562,1,-1,0,-3,-2,-6,1,-1
1676113658975551,0,-1,3,3,0,3,-1,3
1676113658975551,-1,0,-2,-1,2,0,-1,-4
1676113658977549,-1,0,-3,-3,-5,-7,-2,-3
1676113658977549,-2,-1,-2,-5,-3,-6,-1,-4
1676113658989543,1,1,2,4,4,5,-1,3
1676113658989543,-2,-4,-15,0,0,-1,0,-2
1676113658998537,-1,0,3,-5,-3,-6,1,-4
1676113658998537,0,-1,1,-2,-5,-3,-2,-3
1676113659013529,1,0,1,4,1,6,2,3
1676113659013529,-3,-4,-2,0,1,0,-3,-1
1676113659014528,-2,-2,1,-6,-2,-7,-2,-5
1676113659014528,-1,-1,-3,-5,-3,-7,0,-1
1676113659035515,-1,1,3,3,1,3,-1,3
1676113659035515,-3,-3,2,2,2,1,-3,-3
1676113659037514,2,1,0,-4,-4,-9,-2,-4
1676113659037514,0,-1,-2,-6,-3,-5,-1,-3
1676113659058502,-1,-1,-3,-1,1,6,1,1
1676113659058502,-1,-1,3,1,0,1,2,-2
1676113659059502,-1,1,4,-5,-4,-7,-3,-4
1676113659059502,1,2,5,-2,-4,-6,-2,-3
1676113659073495,-2,-3,-12,0,2,4,0,1
1676113659073495,-2,-1,5,1,-1,0,1,-1
1676113659074493,-2,1,-1,-5,-2,-6,-2,-2
1676113659074493,0,0,1,-2,-2,-6,-1,-2
1676113659095481,-2,-2,0,4,3,6,1,3
1676113659095481,-1,-1,-2,-1,-1,-4,-2,0
1676113659097480,-1,-1,-2,-4,-4,-7,0,-4
1676113659097480,-3,-1,-1,-1,-4,-4,-2,-1
1676113659118472,1,-2,-1,2,4,5,0,3
1676113659118472,-1,-1,0,1,1,-3,-1,-2
1676113659119467,-1,0,-1,-1,-3,-7,-2,-4
1676113659119467,-2,-1,-2,-5,-4,-1,0,-2
1676113659133459,1,-1,-6,0,1,7,-2,-1
1676113659133459,-2,-2,-1,1,0,-2,-1,-1
1676113659134461,-1,1,-3,-4,-3,-8,1,-3
1676113659134461,0,0,-2,-6,1,-3,1,-4
1676113659155447,-1,-2,-3,6,2,4,1,3
1676113659155447,-3,-1,3,-2,1,-5,-2,-1
1676113659157446,-3,-1,-3,-3,-6,-8,-1,-2
1676113659157446,-3,-3,-3,-5,-4,-4,-2,-3
1676113659178434,0,-1,1,3,-1,4,2,2
1676113659178434,0,-1,0,0,-2,-2,-1,-1
1676113659179434,0,0,0,-5,-1,-6,1,-3
1676113659179434,-2,-1,1,-3,-2,-7,0,0
1676113659192425,1,-2,-4,2,1,4,0,2
1676113659192425,-2,-3,0,1,-2,-3,-1,-2
1676113659199421,-1,0,-2,-10,-2,-3,-2,-3
1676113659199421,-2,-3,-7,-7,-4,-8,-1,-3
1676113659215412,-1,-2,-1,7,2,4,-3,1
1676113659215412,-1,2,3,-1,1,-2,0,-2
1676113659217411,-3,0,1,-1,-3,-5,-2,-5
1676113659217411,-2,-1,-3,-4,-3,-4,-2,-3
1676113659238401,0,0,3,3,1,8,1,2
1676113659238401,-1,1,0,1,2,-4,-1,-1
1676113659239398,-2,-3,-3,-4,-2,-8,-1,-3
1676113659239398,0,2,0,-2,-2,-3,-2,-2
1676113659252392,0,0,2,2,3,3,-2,3
1676113659252392,-2,-3,-5,-2,-1,-1,0,-3
1676113659259386,-1,-1,2,-2,-3,-5,0,-3
1676113659259386,-2,0,1,-4,-3,-2,-2,-1
1676113659275379,1,-1,5,3,2,4,0,1
1676113659275379,-1,-1,0,2,1,-3,-3,-2
1676113659277377,-1,-8,-17,-9,-3,-5,-2,-5
1676113659277377,0,-1,3,-2,-2,-5,0,-3
1676113659298364,1,1,2,3,2,4,0,3
1676113659298364,-2,-2,-1,-3,-2,-3,-2,-2
1676113659299366,1,1,1,-2,-4,-10,-1,-3
1676113659299366,0,-2,-1,-3,-3,-4,0,0
1676113659312357,0,-2,0,3,0,3,0,3
1676113659312357,-3,-1,-1,-2,-3,-2,-2,-1
1676113659319354,-3,1,1,-3,-4,-6,-2,-4
1676113659319354,-2,-2,-3,-4,-2,-3,1,-2
1676113659335343,-1,1,4,3,3,5,-2,2
1676113659335343,-1,-3,-2,-1,-2,-3,-2,-2
1676113659337344,0,-3,3,-3,-1,-6,-2,-4
1676113659337344,1,1,-4,-4,-2,-3,1,-3
1676113659358331,-1,-1,-2,5,4,5,-1,1
1676113659358331,-2,-1,-2,-2,-2,-4,-1,-2
1676113659359333,0,0,3,-4,-2,-5,-2,-1
1676113659359333,-2,-1,1,-2,-3,0,0,0
1676113659372323,0,0,2,3,0,2,1,1
1676113659372323,-1,-2,-3,-5,-3,-3,-2,-2
1676113659381319,-1,3,2,-2,-2,-3,0,-2
1676113659381319,1,-1,1,-1,-1,-2,-1,-4
1676113659395308,-2,-1,-2,-1,2,6,2,2
1676113659395308,-2,-1,-1,-2,0,-3,-1,-3
1676113659397310,-1,0,2,-4,-2,-8,-2,-5
1676113659397310,-1,-1,-7,-3,-2,0,-1,-1
1676113659425294,1,-1,0,5,3,2,0,2
1676113659425294,-2,-2,-4,-6,0,-2,-1,-5
1676113659427291,-1,-2,-3,-1,-2,-5,-1,-2
1676113659427291,-1,0,-2,-2,-3,-2,0,-2
1676113659432287,0,-2,2,4,1,5,0,0
1676113659432287,-1,-2,3,-2,0,-3,-1,-1
1676113659439285,-1,0,-1,-4,-3,-6,-1,-3
1676113659439285,0,-1,-7,2,-1,1,1,3
1676113659455277,1,-1,-2,0,1,3,-1,2
1676113659455277,-3,-2,-9,-4,-4,-6,-2,-4
1676113659457274,-1,-1,0,-7,-6,-4,-1,-5
1676113659457274,-1,0,4,0,-1,-3,1,1
1676113659478263,0,-1,-2,7,3,3,-1,3
1676113659478263,-1,-1,-8,-5,1,-3,-2,-4
1676113659480261,-1,-2,-3,-5,-1,-7,1,-2
1676113659480261,0,1,2,-4,-1,-1,-2,-1
1676113659492255,1,1,-1,3,3,2,-1,3
1676113659492255,0,1,2,1,-4,-5,0,1
1676113659499249,-2,0,1,-2,-3,-4,0,-2
1676113659499249,0,0,-1,-2,0,-4,-1,-2
1676113659515243,-2,-4,-5,0,1,0,-2,0
1676113659515243,-2,-1,3,-2,-2,-4,-1,-1
1676113659517240,-2,-1,-2,-1,-3,-5,1,-4
1676113659517240,-1,0,1,-2,-1,1,-2,1
1676113659538226,-1,1,4,3,2,4,-1,1
1676113659538226,-1,-5,-13,-3,-2,-2,-1,-2
1676113659540227,-1,1,-1,-4,-3,-3,-1,-1
1676113659540227,0,2,3,-2,0,0,0,-1
1676113659552220,-1,-2,0,2,-1,4,0,2
1676113659552220,-1,1,4,0,-2,-3,-5,-3
1676113659561215,-1,-2,-3,-3,-3,-5,-1,-4
1676113659561215,1,-2,-5,-2,-2,-1,1,1
1676113659575208,0,1,1,5,1,1,2,3
1676113659575208,-1,0,3,-2,1,-6,0,-1
1676113659577207,-3,-1,-6,-5,-4,-8,-4,-2
1676113659577207,-2,1,2,0,-3,-1,-1,-1
1676113659598195,-2,-2,-4,-2,0,3,1,3
1676113659598195,0,0,3,-1,-1,-5,-1,-3
1676113659600192,-2,-3,-4,-5,-5,-5,-2,0
1676113659600192,0,0,1,1,1,-1,-1,0
1676113659612186,1,1,2,0,3,6,0,-1
1676113659612186,-1,-2,-7,0,-3,-3,-3,-3
1676113659621181,1,0,3,-4,-3,-6,1,-3
1676113659621181,0,-1,0,1,-1,-1,0,1
1676113659635173,0,-2,-8,2,2,4,-1,3
1676113659635173,-2,1,2,-2,0,-5,-1,-1
1676113659637172,0,1,-1,-4,-2,-7,-1,-3
1676113659637172,0,-1,-2,-2,-1,2,0,1
1676113659658162,0,-1,1,5,2,4,0,3
1676113659658162,-2,-4,-3,-2,-3,-4,-4,-3
1676113659660159,-2,0,0,-4,-2,-5,1,-3
1676113659660159,-1,1,2,0,-1,-1,0,1
1676113659672150,-2,-2,1,3,1,5,0,4
1676113659672150,-3,0,1,-3,-1,-6,-3,-3
1676113659681148,-3,0,1,-2,-3,-7,-4,-3
1676113659681148,2,0,2,0,0,2,0,0
1676113659695138,1,0,0,3,2,3,1,2
1676113659695138,0,-1,-1,-2,-2,-5,-1,-2
1676113659697136,1,-1,-1,-4,-2,-2,0,-3
1676113659697136,0,1,1,0,0,-1,2,3
1676113659718125,-3,-2,-8,2,2,5,-1,3
1676113659718125,-2,0,6,-6,0,-5,0,-3
1676113659720124,-2,-4,-6,-1,-3,-6,-2,-2
1676113659720124,1,1,0,-1,3,4,-3,0
1676113659732116,1,-1,2,3,4,3,-1,2
1676113659732116,-1,-2,-1,-4,-3,-6,-2,-2
1676113659741112,-3,1,-7,-7,-4,-7,-2,-2
1676113659741112,0,-2,0,3,0,4,0,2
1676113659755103,-1,0,0,3,2,6,-2,2
1676113659755103,-2,-1,0,-2,-2,-7,-2,-2
1676113659757102,1,3,0,-4,-4,-4,-1,-4
1676113659757102,-1,-2,-3,0,0,2,-2,0
1676113659778090,2,1,4,4,1,3,1,1
1676113659778090,-2,-5,-9,-3,-2,-5,-1,-5
1676113659780089,-1,0,2,-3,-1,-4,-1,-2
1676113659780089,0,-1,-1,2,-1,1,0,0
1676113659792082,-1,0,-2,-1,1,3,-2,3
1676113659792082,-2,-2,-2,-2,-3,-5,-2,-2
1676113659801078,-2,2,2,-5,-5,-5,0,-3
1676113659801078,1,1,-1,0,0,3,2,1
1676113659816073,-1,0,3,6,3,4,1,4
1676113659816073,-2,-2,-1,-3,-2,-6,0,-4
1676113659817068,1,-1,2,-4,-3,-3,-3,-3
1676113659817068,0,-2,-1,5,1,3,0,2
1676113659846051,1,-4,-3,1,2,1,-3,-1
1676113659846051,-4,-2,-6,-7,-1,-6,-1,-2
1676113659847055,1,0,1,-3,-1,-5,1,0
1676113659847055,-1,2,-1,0,1,4,-1,3
1676113659852049,0,-2,-3,3,1,5,-1,2
1676113659852049,-2,-2,-2,-2,-4,-8,-2,-6
1676113659861043,1,-1,0,-4,-3,-5,-1,-4
1676113659861043,0,-2,-3,0,1,3,1,2
1676113659876034,1,0,2,2,4,6,2,3
1676113659876034,-1,0,4,-2,-2,-7,-2,-4
1676113659877034,-2,-1,-4,-4,-3,-6,0,-3
1676113659877034,1,0,0,1,2,2,-2,2
1676113659898022,-2,1,0,4,2,4,1,1
1676113659898022,-2,1,1,-2,-3,-6,0,-4
1676113659900022,-1,-2,-1,-2,-2,-6,-1,-2
1676113659900022,1,-3,4,-1,0,4,-1,2
1676113659912013,1,0,-1,5,2,6,-2,2
1676113659912013,0,-3,-6,-5,-2,-5,-1,-3
1676113659921009,-1,2,0,-2,-2,-3,-1,-2
1676113659921009,1,0,-4,0,1,2,2,0
1676113659935999,-3,-2,0,2,2,5,-1,2
1676113659935999,-1,-2,1,-3,-2,-6,-2,-3
1676113659937000,0,-1,2,-4,-3,-5,-2,-1
1676113659937000,1,1,-1,-4,0,2,-1,2
1676113659956988,-2,-2,-5,6,3,3,-1,1
1676113659956988,-1,0,1,-2,-2,-8,-3,-4
1676113659965984,-3,-1,-2,-3,-2,-3,0,-2
1676113659965984,-1,1,1,1,-1,7,2,1
1676113659980974,0,1,-3,1,2,3,-3,4
1676113659980974,-1,-3,-3,-3,-4,-7,-1,-3
1676113659981975,1,-1,0,0,1,-5,0,-3
1676113659981975,2,2,2,6,-1,4,2,3
1676113659995966,0,-1,-2,1,4,3,-2,4
1676113659995966,-2,-1,-1,-3,-2,-6,-2,-3
1676113659996966,-1,-1,-3,-4,-3,-6,-1,-3
1676113659996966,0,-2,1,3,2,6,1,3
1676113660017953,-1,0,1,3,2,3,0,1
1676113660017953,-1,0,1,-5,-3,-4,-2,-4
1676113660019953,0,-1,-4,-7,-4,-6,-3,-4
1676113660019953,1,-1,-1,2,0,4,-1,4
1676113660040941,1,-1,0,4,1,4,3,2
1676113660040941,0,0,-4,-6,-3,-7,-3,-2
1676113660041942,-1,-3,-4,-3,-4,-3,-3,-1
1676113660041942,0,0,-4,4,0,6,1,3
1676113660055931,1,-1,0,3,5,4,-2,3
1676113660055931,-2,-1,0,0,-4,-7,0,-4
1676113660056931,0,0,-2,-5,-2,-1,1,-2
1676113660056931,0,-1,-3,2,2,4,-1,2
1676113660077918,1,-2,2,4,2,5,-2,3
1676113660077918,-2,1,0,-6,-1,-7,-1,-3
1676113660079919,-2,1,0,0,-3,-7,-2,-4
1676113660079919,1,-2,-4,-2,1,6,-1,2
1676113660100906,0,-2,0,3,2,5,0,3
1676113660100906,-2,0,0,-2,-3,-6,-3,-5
1676113660101907,-1,0,-1,-4,-2,-7,0,-2
1676113660101907,0,-2,-4,0,1,3,-1,1
1676113660115896,3,-1,2,4,1,4,-1,3
1676113660115896,-2,-2,-12,-7,-2,-8,-2,-5
1676113660116900,-2,-2,0,-3,-3,-8,-1,-3
1676113660116900,2,0,0,3,1,4,1,2
1676113660137903,-1,1,0,5,0,4,-1,4
1676113660137903,0,-1,2,-2,-3,-10,0,-2
1676113660139884,-1,-1,0,-6,-3,-5,-1,-4
1676113660139884,0,1,0,7,3,6,1,2
1676113660160872,1,-1,-8,1,2,5,-2,2
1676113660160872,-4,0,1,-5,-4,-8,-2,-4
1676113660161872,1,0,-4,-4,-5,-5,-1,-3
1676113660161872,0,2,4,3,2,4,1,2
1676113660174865,1,-2,-2,6,1,4,1,3
1676113660174865,-3,-3,-8,-7,-3,-7,-1,-4
1676113660181860,-1,0,1,-7,-3,-3,1,-4
1676113660181860,0,0,2,4,1,5,-1,1
1676113660197852,0,2,3,5,2,2,-1,2
1676113660197852,1,-1,0,-3,-3,-8,-1,-3
1676113660199850,-3,-2,1,-5,-5,-5,-2,-3
1676113660199850,-2,1,0,7,3,7,1,3
1676113660220837,1,-2,-1,3,4,6,1,3
1676113660220837,-3,0,3,-3,-3,-5,-2,-3
1676113660221837,-1,0,-2,-3,-2,-5,-1,-3
1676113660221837,0,2,3,2,1,5,-1,3
1676113660234829,-1,1,0,4,1,6,1,6
1676113660234829,1,0,4,-2,-2,-6,-3,-3
1676113660241827,-2,-2,0,0,-4,-6,-2,-1
1676113660241827,2,-1,-10,-4,3,6,0,6
1676113660257820,1,0,4,5,5,5,-1,1
1676113660257820,-1,-2,-1,-3,-4,-5,-2,-4
1676113660259817,-2,0,-1,-2,-4,-4,0,-4
1676113660259817,-1,0,2,0,-1,5,0,2
1676113660280803,-2,-2,1,3,5,4,0,3
1676113660280803,-2,-1,-5,-5,-3,-8,-2,-5
1676113660281803,1,-4,0,-2,-2,-9,-3,-2
1676113660281803,-1,-1,-2,3,3,6,1,6
1676113660294796,-2,-2,1,3,2,5,0,4
1676113660294796,-3,0,0,-4,-2,-8,-1,-6
1676113660301792,0,-1,-2,-5,-1,-4,2,-6
1676113660301792,3,-1,0,3,2,7,0,0
1676113660317784,-1,-1,-4,3,1,6,-2,3
1676113660317784,-2,-1,0,-2,-3,-6,-1,-4
1676113660319781,-2,0,-3,-5,-1,-4,-2,-2
1676113660319781,0,-2,-1,0,4,6,-1,4
1676113660340769,-1,1,-2,2,3,4,0,2
1676113660340769,-2,-2,-1,-4,-3,-7,-2,-3
1676113660341770,-3,2,1,-2,-2,-7,0,-2
1676113660341770,2,0,3,6,2,7,-1,3
1676113660354760,0,-3,-3,3,3,4,-2,3
1676113660354760,-2,0,0,-6,-5,-7,-1,-5
1676113660361757,1,-2,1,-4,-2,-7,-1,0
1676113660361757,1,2,1,6,2,5,1,3
1676113660377748,0,-2,-1,2,3,4,1,1
1676113660377748,-1,0,0,-4,-3,-8,-2,-5
1676113660379747,0,-1,-4,-3,-4,-4,0,-3
1676113660379747,2,-2,3,3,3,7,-1,3
1676113660400736,0,-1,1,4,2,5,-1,2
1676113660400736,-2,0,-2,-4,-2,-9,-2,-4
1676113660401739,-1,0,-2,-7,-4,-5,1,-4
1676113660401739,1,-1,2,3,4,7,-1,5
1676113660414728,2,0,-1,5,3,4,1,2
1676113660414728,0,-4,-5,-6,-4,-8,0,-5
1676113660428719,-4,1,0,-2,-3,-5,-2,-3
1676113660428719,1,-3,-3,2,1,7,5,4
1676113660437713,0,0,3,-1,2,4,-1,2
1676113660437713,-1,1,-2,-4,-4,-10,-1,-3
1676113660439713,0,1,3,-1,-2,-6,-1,-2
1676113660439713,-1,0,-5,2,2,7,-1,2
1676113660460702,-1,0,-2,5,2,3,0,0
1676113660460702,0,-3,0,-7,-4,-9,-1,-4
1676113660461700,-2,-2,-3,-4,-4,-5,-3,-4
1676113660461700,1,3,2,6,4,7,1,6
1676113660474692,0,-4,-5,2,2,4,1,1
1676113660474692,-3,-1,-8,-6,-3,-8,-3,-3
1676113660483688,2,2,2,-4,-6,-5,0,-5
1676113660483688,1,-3,-1,6,3,6,2,5
1676113660497680,-2,-2,0,3,2,4,-3,1
1676113660497680,-2,0,0,-3,-4,-7,-1,-3
1676113660499678,0,-2,-2,-5,-1,-5,-4,-3
1676113660499678,0,0,1,3,1,6,-1,0
1676113660520666,-2,1,3,3,3,3,-2,-2
1676113660520666,-2,1,-6,-6,-5,-9,-2,-5
1676113660522667,1,0,-2,-3,-3,-6,-3,-3
1676113660522667,0,-2,-2,1,1,7,1,4
1676113660534662,-1,-3,0,7,1,4,1,2
1676113660534662,-1,2,-1,-6,-4,-8,-2,-5
1676113660543654,-2,-1,1,-4,-4,-9,-1,-4
1676113660543654,0,1,-2,2,4,7,0,3
1676113660557648,-1,1,-2,3,3,2,1,1
1676113660557648,-2,-4,-6,-7,-4,-9,-1,-3
1676113660559644,0,-2,0,-4,-4,-7,-3,-2
1676113660559644,1,1,2,5,1,6,0,3
1676113660580633,-1,-2,-3,1,1,0,-2,2
1676113660580633,-1,1,5,0,0,-6,-4,-6
1676113660582632,-2,0,0,-7,-4,-7,0,-2
1676113660582632,-1,-3,-2,3,2,6,1,3
1676113660594626,1,-5,-7,3,1,1,-1,2
1676113660594626,-2,-3,2,-5,0,-7,0,-5
1676113660603621,-2,-1,-2,-4,-5,-7,0,-3
1676113660603621,3,0,2,6,3,4,-2,3
1676113660617612,0,-2,0,0,2,1,-2,1
1676113660617612,-2,1,5,-5,-4,-5,-1,-4
1676113660619612,-1,-2,-7,-3,-2,-6,0,-6
1676113660619612,0,-3,-4,3,3,7,0,2
1676113660640598,-1,1,-1,-1,2,1,-2,2
1676113660640598,0,0,1,-4,-4,-7,-1,-4
1676113660642599,-1,1,1,-6,-3,-6,-1,-3
1676113660642599,0,-1,0,5,3,4,-1,3
1676113660654589,-1,-3,-2,0,3,1,-1,1
1676113660654589,-1,-3,-1,-4,-5,-8,0,-6
1676113660663587,-2,0,-1,-6,-1,-3,-1,-4
1676113660663587,0,1,1,3,2,9,0,2
1676113660677576,-4,1,2,1,2,2,-1,1
1676113660677576,-2,-1,3,-4,-2,-8,-3,-3
1676113660679576,0,-4,-11,-7,-1,-5,-1,-3
1676113660679576,2,-1,0,7,2,5,-3,3
1676113660700566,-1,-2,-4,0,2,2,0,0
1676113660700566,-2,-1,3,-3,-3,-7,1,-3
1676113660706560,-1,-1,4,0,-2,-7,-1,-3
1676113660706560,-1,-1,-3,-2,2,5,0,3
1676113660714555,-1,-2,-4,5,2,1,0,1
1676113660714555,-1,-2,-3,-3,-3,-7,-5,-4
1676113660723551,-1,-1,1,-3,-2,-5,-2,-3
1676113660723551,0,1,4,7,1,6,0,3
1676113660738542,-3,-1,1,3,0,1,-1,0
1676113660738542,-1,-1,-4,-8,-2,-10,-1,-4
1676113660739542,0,3,2,-3,-5,-5,0,-4
1676113660739542,2,0,1,5,2,5,1,3
1676113660760529,1,-1,2,1,-1,1,-3,-3
1676113660760529,-2,-1,0,-4,-5,-8,-1,-3
1676113660762528,-1,-2,-2,-5,-6,-6,0,-3
1676113660762528,0,-1,-2,3,2,5,-1,2
1676113660774522,0,-2,-2,-1,0,0,-1,-1
1676113660774522,-2,0,-3,-4,-1,-5,0,-3
1676113660783517,-2,-1,1,-6,-4,-7,-1,-6
1676113660783517,-1,-1,-2,6,2,8,-1,3
1676113660798508,0,1,-1,0,0,0,-2,-1
1676113660798508,0,-1,-4,-5,-4,-9,0,-4
1676113660799507,-3,-1,-2,-5,-5,-6,1,-3
1676113660799507,0,0,1,2,2,5,1,4
1676113660820494,-1,-3,-3,-1,0,-1,-3,-1
1676113660820494,-1,0,0,-5,-6,-7,-1,-2
1676113660822494,-1,3,5,-2,-3,-7,0,1
1676113660822494,-1,-4,-7,3,5,7,0,2
1676113660834488,-2,0,1,1,3,0,-2,-2
1676113660834488,-2,0,0,-5,-6,-8,-1,-5
1676113660843482,2,-1,2,-2,-1,-6,0,-2
1676113660843482,0,1,0,3,1,6,0,2
1676113660858473,-2,-2,1,-1,0,0,0,1
1676113660858473,0,1,-3,-4,-4,-7,-2,-3
1676113660859473,-2,-1,-3,-4,-3,-4,-1,-4
1676113660859473,-1,-2,2,2,2,7,1,3
1676113660880460,1,-3,-10,-4,-2,-2,-4,-2
1676113660880460,-2,-2,1,-1,-4,-9,-3,-7
1676113660882460,-1,-2,-3,-2,-3,-7,0,-3
1676113660882460,0,-2,2,3,2,6,0,3
1676113660894452,0,0,3,1,-3,-4,0,0
1676113660894452,-2,-3,-8,-7,-2,-6,-1,-4
1676113660903448,-2,-1,-2,-5,-2,-6,-3,-1
1676113660903448,0,0,-1,3,2,6,1,3
1676113660918439,-2,-2,1,0,0,-2,0,-3
1676113660918439,1,1,3,-4,-3,-8,-2,-4
1676113660919440,0,-1,-3,-5,-4,-6,-1,-2
1676113660919440,0,-2,0,6,3,4,-1,2
1676113660940428,-2,-1,-5,-2,0,-4,-2,-1
1676113660940428,-2,-1,0,-6,-3,-7,-2,-2
1676113660942426,-2,-2,-2,-3,-4,-5,0,-2
1676113660942426,-2,-1,0,2,0,3,1,4
1676113660963413,-3,0,2,2,0,-3,0,-1
1676113660963413,-1,-1,-5,-4,-3,-7,-1,-4
1676113660964417,1,-1,-4,-5,-5,-5,-1,-3
1676113660964417,1,-1,-1,3,3,5,0,4
1676113660978404,-4,0,1,2,-1,-1,0,-2
1676113660978404,-1,-2,0,-6,-2,-7,-2,-6
1676113660979406,-2,-2,-1,-3,-2,-4,-2,-2
1676113660979406,1,0,-1,5,2,6,0,2
1676113661000393,1,-1,-1,-5,-1,-4,1,-2
1676113661000393,-2,-1,1,1,-5,-8,-1,-3
1676113661002392,-1,0,0,-4,-4,-5,1,-1
1676113661002392,-2,-3,-1,1,2,6,-2,2
1676113661022380,-3,0,-1,0,-1,-3,-3,-1
1676113661022380,-2,-2,0,-6,-5,-7,0,-3
1676113661030376,-2,-1,-6,-5,-3,-5,0,-3
1676113661030376,-1,1,3,4,3,5,0,2
1676113661038373,-2,-2,-1,0,0,-4,-3,1
1676113661038373,0,1,5,-3,-4,-7,-1,-4
1676113661040370,-1,-1,2,-2,0,-4,-1,-4
1676113661040370,-2,-1,-2,1,2,4,-1,4
1676113661060358,-3,-3,-5,0,0,-4,0,-2
1676113661060358,0,1,-3,-4,-3,-3,0,-5
1676113661062357,0,-1,-1,-4,-1,-2,-1,-1
1676113661062357,1,-1,-1,3,2,4,-2,0
1676113661083345,-2,-2,0,-2,-1,-2,-2,-2
1676113661083345,-3,-1,-3,-8,-5,-6,0,-3
1676113661084345,1,0,-1,-2,-2,-3,1,-1
1676113661084345,1,1,1,5,2,2,1,1
1676113661097337,-1,-1,-1,1,0,-2,-4,-4
1676113661097337,-1,-5,-6,-6,-3,-7,-1,-4
1676113661104333,1,3,5,-3,-2,-3,0,-2
1676113661104333,-1,-2,-9,0,0,5,-3,3
1676113661120325,-4,-2,1,-3,0,-3,0,-4
1676113661120325,-1,-1,-1,-5,-1,-4,1,0
1676113661122323,1,-1,0,-1,-3,-4,-1,-1
1676113661122323,1,0,1,3,2,4,0,1
1676113661143311,-2,1,-2,-4,-1,-3,1,-2
1676113661143311,0,1,2,-3,-1,-5,-2,-3
1676113661144310,-1,-2,-4,-4,-3,-2,0,1
1676113661144310,-1,0,0,3,1,4,0,2
1676113661157303,-1,-1,-1,-2,-2,-3,-3,-4
1676113661157303,-1,2,-1,-3,-3,-6,-2,-4
1676113661164298,1,0,2,0,-1,-1,0,-2
1676113661164298,1,-3,-3,-1,3,6,-1,3
1676113661180291,-3,-5,0,0,-2,-3,-4,-4
1676113661180291,-1,0,-1,-4,-3,-5,-2,-3
1676113661183288,0,1,-3,0,0,0,0,-1
1676113661183288,-2,-1,2,6,1,6,0,3
1676113661202277,1,0,-3,-1,-2,-5,1,-1
1676113661202277,-1,-2,-1,-3,-3,-7,-3,-3
1676113661203276,0,1,1,-1,0,-2,-1,-1
1676113661203276,-2,1,0,3,4,2,-1,2
1676113661216271,-4,-2,-1,-2,-2,-5,0,-3
1676113661216271,-2,1,-2,-4,-4,-6,-2,-4
1676113661224265,1,-2,-4,-3,-1,-1,-2,-2
1676113661224265,1,0,-1,3,2,5,1,2
1676113661240255,-1,-1,1,-4,-2,-3,-3,0
1676113661240255,-2,0,0,-4,-5,-5,1,-2
1676113661240255,-1,-1,2,-2,-4,-3,0,-2
1676113661240255,-1,-2,0,6,1,3,-3,1
1676113661262243,-3,-2,0,-2,0,-3,-2,-2
1676113661262243,-1,-3,-5,-7,-4,-7,-2,-3
1676113661263242,0,0,2,-1,-2,1,1,-1
1676113661263242,1,-1,3,1,0,4,1,3
1676113661277234,-1,-3,-2,0,-3,-6,-2,-2
1676113661277234,1,3,4,-1,-1,-5,0,-3
1676113661284230,-1,-1,-3,-4,-4,-2,-1,0
1676113661284230,0,0,-4,2,1,3,1,3
1676113661300222,-1,-1,-1,-2,0,-3,0,-3
1676113661300222,-3,-1,-2,-9,-4,-6,-1,-5
1676113661301221,1,0,1,5,0,0,-2,2
1676113661301221,1,0,3,3,2,4,0,0
1676113661322210,0,-1,-2,-2,-3,-5,0,-3
1676113661322210,0,-1,-7,-8,-3,-4,1,-2
1676113661323208,2,3,3,0,-2,-4,-1,2
1676113661323208,2,-2,-2,2,0,1,-2,1
1676113661337200,0,-2,-1,-2,-1,-6,-3,-3
1676113661337200,0,0,3,-1,-4,-4,-1,-2
1676113661344197,-1,-4,-6,-4,0,1,0,1
1676113661344197,-1,-2,-1,4,4,6,1,3
1676113661360187,0,1,0,-3,-2,-6,-2,-2
1676113661360187,-1,1,-4,-4,-4,-7,-2,-2
1676113661361189,0,-2,-1,0,-2,-2,1,-2
1676113661361189,-2,-2,1,3,5,3,-1,0
1676113661382177,-2,-1,1,-3,-2,-5,-2,-5
1676113661382177,-2,-2,2,-5,-2,-5,-2,-3
1676113661383174,-1,2,1,1,0,1,2,0
1676113661383174,1,-2,-4,1,1,5,-2,2
1676113661397166,-3,1,0,-4,-2,-6,-2,-3
1676113661397166,-1,-2,0,-3,0,-5,0,-3
1676113661404163,-1,-1,4,1,1,1,0,-1
1676113661404163,-1,1,1,3,3,4,-1,2
1676113661420152,-2,-2,-1,-4,-2,-3,-2,-2
1676113661420152,0,0,-1,-2,-3,-5,-2,-2
1676113661421152,2,0,-2,-1,-3,1,0,3
1676113661421152,0,0,-1,0,1,4,0,3
1676113661442141,-3,-4,-1,1,-3,-6,-4,-5
1676113661442141,-1,-2,0,-3,-3,-5,-1,-3
1676113661443139,1,0,-2,1,0,2,0,1
1676113661443139,0,-2,-4,2,2,4,-1,1
1676113661457132,1,1,-1,-6,-1,-7,-1,-4
1676113661457132,1,-1,-2,-4,-4,-4,0,-2
1676113661464128,1,-1,2,0,0,1,-2,-1
1676113661464128,-2,-2,-1,4,2,5,0,4
1676113661480119,-2,-1,2,-2,0,-2,-2,0
1676113661480119,-1,-4,-8,-2,-2,-6,-4,-3
1676113661481118,2,1,0,-2,-1,6,2,2
1676113661481118,2,-3,0,4,2,3,0,2
1676113661502106,-1,-2,0,-2,-3,-5,-1,-2
1676113661502106,-2,2,0,-4,-3,-6,0,-3
1676113661503105,-2,0,0,-2,3,2,-1,2
1676113661503105,0,0,0,5,3,4,0,4
1676113661517097,-1,-2,-2,-3,-4,-5,-1,-4
1676113661517097,1,-2,1,-2,-2,-4,0,-4
1676113661524095,2,1,0,1,1,4,1,1
1676113661524095,1,1,2,-1,2,4,-1,2
1676113661540084,-1,-1,-3,2,1,-6,1,-4
1676113661540084,-2,-7,-3,-5,-5,-6,-2,-2
1676113661541085,0,1,3,3,1,1,1,0
1676113661541085,2,-2,-8,1,1,4,-2,2
1676113661562073,-2,0,-1,-3,-2,-6,-2,-3
1676113661562073,1,1,1,-1,-1,-6,-1,-3
1676113661563071,0,-1,-1,2,-2,3,-1,2
1676113661563071,-1,-1,1,5,3,5,0,4
1676113661577063,-2,-2,-6,-7,-1,-5,-1,-4
1676113661577063,-2,0,0,-2,-6,-3,0,-3
1676113661584059,3,0,-3,-3,-2,1,-1,3
1676113661584059,2,-3,1,4,3,5,0,1
1676113661600050,-2,-2,-4,-5,-4,-3,0,-1
1676113661600050,-1,1,2,-2,-1,-4,0,-2
1676113661601049,-1,-1,-1,0,-1,4,-1,0
1676113661601049,-2,-3,-3,2,3,5,0,0
1676113661622037,-1,0,6,-2,-2,-10,-3,-4
1676113661622037,-2,0,-4,-7,-2,-5,1,-3
1676113661630033,-2,-1,2,2,1,4,-1,3
1676113661630033,-1,0,1,5,2,5,0,3
1676113661637029,-4,-1,-2,-3,-2,-5,-2,-3
1676113661637029,-2,0,1,-3,0,-4,0,-2
1676113661644026,0,-1,-2,0,2,4,1,3
1676113661644026,-1,-1,-2,3,2,5,2,1
1676113661660016,0,-1,0,-4,-4,-7,-3,-3
1676113661660016,-2,0,-1,-6,-5,-5,0,-3
1676113661661017,1,1,-2,4,2,3,2,4
1676113661661017,-1,-5,-5,4,1,3,-2,3
1676113661682004,-2,-2,-3,-4,-2,-6,-3,-3
1676113661682004,0,-1,0,-2,-4,-6,1,-3
1676113661683003,-1,-1,0,1,0,5,0,2
1676113661683003,0,0,0,3,1,5,1,3
1676113661696997,-3,-2,-2,-4,-4,-5,-1,-5
1676113661696997,1,0,2,-1,-3,-4,-3,-1
1676113661703992,-1,-1,-6,-1,0,4,3,0
1676113661703992,0,2,0,4,2,4,-2,2
1676113661719981,-3,-3,-2,-4,-2,-7,-2,-3
1676113661719981,0,-1,3,-4,-2,-3,0,-3
1676113661720981,3,-1,3,3,-1,2,0,3
1676113661720981,-3,-2,-1,3,5,4,-1,3
1676113661741968,-3,-1,-3,-2,-3,-8,-1,-4
1676113661741968,-2,0,-2,-2,-2,-4,0,-3
1676113661742968,2,-1,-2,2,1,5,-1,0
1676113661742968,-1,1,1,2,0,4,0,1
1676113661756960,-1,0,0,-6,-2,-6,-2,-1
1676113661756960,-1,2,-2,-2,-3,-6,-1,-3
1676113661763958,-1,0,-3,1,3,6,1,2
1676113661763958,2,-1,3,4,1,6,-1,4
1676113661779947,-2,0,1,-1,-1,-6,-1,-5
1676113661779947,-1,-2,-2,-5,-4,-6,-1,-2
1676113661780946,1,0,0,3,3,5,-1,3
1676113661780946,0,1,3,6,2,5,1,3
1676113661802934,-2,1,-5,-6,-5,-9,-3,-5
1676113661802934,-1,0,0,-5,-2,-5,0,-3
1676113661802934,0,0,1,3,0,4,0,1
1676113661802934,-2,-1,-3,3,3,4,-1,4
1676113661816926,0,0,1,-2,-2,-8,-2,-3
1676113661816926,0,-4,-5,-5,-4,-4,-3,-3
1676113661823922,2,1,-2,3,2,5,1,3
1676113661823922,1,1,-1,6,3,6,1,1
1676113661839912,-3,-2,-1,-5,-5,-8,0,-5
1676113661839912,1,-1,-4,-7,-3,-5,0,-2
1676113661840912,2,0,1,3,1,4,1,5
1676113661840912,-2,-1,-1,3,5,7,-1,2
1676113661862900,0,-2,-1,-4,-1,-9,-4,-4
1676113661862900,0,-1,-2,-2,-1,-5,0,-3
1676113661862900,0,0,0,4,2,5,3,3
1676113661862900,0,-1,2,5,2,5,0,3
1676113661884887,0,-3,-11,-8,-4,-6,-1,-3
1676113661884887,-1,0,0,-2,-4,-4,-1,-4
1676113661885886,2,1,0,2,2,6,1,2
1676113661885886,-2,-1,1,5,4,4,-1,1
1676113661899879,-1,-1,0,-4,-2,-6,-3,-5
1676113661899879,-2,0,3,-8,-3,-6,0,-2
1676113661900878,2,1,1,9,4,7,0,4
1676113661900878,0,-1,-2,-1,1,4,-1,3
1676113661922865,-2,0,0,-5,-2,-8,-3,-2
1676113661922865,-2,-1,1,-4,-1,-7,-2,-3
1676113661922865,2,0,3,3,0,6,-1,3
1676113661922865,1,-1,0,3,4,8,-1,4
1676113661944853,0,-2,-3,-2,-3,-5,0,-4
1676113661944853,-5,-1,-6,-6,-3,-5,-2,-4
1676113661945853,-1,-2,-1,0,1,6,0,4
1676113661945853,0,-1,0,5,3,2,-1,3
1676113661959845,0,0,-4,-8,-5,-7,-2,-4
1676113661959845,1,2,3,0,-1,-4,-1,-3
1676113661960844,0,-2,-6,1,3,6,1,3
1676113661960844,0,-3,0,2,3,7,1,2
1676113661982832,-3,0,5,-2,-2,-8,0,-2
1676113661982832,-1,-2,0,-3,-5,-8,-1,-2
1676113661982832,2,-1,-2,1,2,7,-1,2
1676113661982832,-2,0,0,5,2,5,0,3
1676113662004819,0,0,0,-3,-3,-6,-1,-4
1676113662004819,-2,0,4,-1,-1,-5,-2,-4
1676113662005818,-1,-3,-7,-1,1,8,0,1
1676113662005818,2,1,1,3,1,4,1,3
1676113662019810,-2,-2,0,-2,-3,-6,-1,-5
1676113662019810,-1,-2,-4,-2,-3,-6,-1,-2
1676113662020810,-1,0,3,5,3,5,2,4
1676113662020810,1,-2,-4,3,1,5,-2,2
1676113662042797,-3,0,-1,-6,-4,-8,-2,-6
1676113662042797,-1,-1,0,-3,-3,-5,-1,-4
1676113662042797,1,0,0,3,4,6,2,3
1676113662042797,1,-1,0,3,1,7,0,3
1676113662064785,-2,-2,-2,-7,-3,-9,-2,-3
1676113662064785,1,1,2,-3,-2,-6,-1,-4
1676113662065785,1,-3,-2,1,1,7,1,3
1676113662065785,1,1,1,2,4,4,-1,2
1676113662079776,0,-2,-3,1,-4,-6,-1,-3
1676113662079776,-1,-1,0,-4,-2,-7,-2,-3
1676113662080775,1,1,1,2,1,6,-1,2
1676113662080775,-1,-2,0,5,4,6,-1,3
1676113662102763,-2,0,-1,-6,-4,-9,-2,-6
1676113662102763,0,0,-3,-2,-6,-5,0,-4
1676113662102763,-2,-1,1,6,3,5,0,4
1676113662102763,0,0,-3,1,2,3,0,3
1676113662124751,-1,-2,0,-6,-3,-7,-2,-5
1676113662124751,-4,0,-4,-5,-3,-1,0,-5
1676113662125750,2,-1,1,1,4,9,0,0
1676113662125750,1,-2,-1,5,3,6,-1,2
1676113662139742,0,1,1,-3,-3,-7,0,-1
1676113662139742,-3,-4,-8,-5,-2,-6,-1,-4
1676113662140742,1,2,2,6,1,7,0,4
1676113662140742,-1,-2,-3,2,3,4,0,0
1676113662162728,0,0,-3,-6,-1,-11,-1,-6
1676113662162728,-2,0,1,-6,-4,-3,-1,1
1676113662162728,2,-1,-1,4,4,7,-1,4
1676113662162728,1,-2,0,4,0,3,-3,2
1676113662184717,-3,-1,1,-3,-4,-9,-1,-3
1676113662184717,-2,-1,-2,-4,-2,-2,0,-3
1676113662185716,1,-1,-2,6,2,5,2,3
1676113662185716,0,-1,0,2,3,4,0,2
1676113662199708,-3,-1,-2,-7,-5,-9,0,-4
1676113662199708,0,0,1,-4,-4,-6,-1,-2
1676113662200708,0,0,2,3,1,6,0,4
1676113662200708,-1,-4,-6,1,3,4,0,2
1676113662222694,-1,-1,3,-4,0,-6,-4,-4
1676113662222694,0,0,-6,0,-4,-5,0,-5
1676113662222694,0,2,1,3,1,8,0,5
1676113662222694,-3,-1,-1,5,3,1,-1,1
1676113662244682,-2,-1,2,-4,-4,-8,0,-5
1676113662244682,-2,-1,-2,-5,-4,-5,-3,-1
1676113662245682,0,1,3,5,4,7,0,4
1676113662245682,-1,-2,0,4,2,4,-1,1
1676113662259674,-2,-3,-3,-5,-4,-6,-1,-4
1676113662259674,3,2,3,-2,-3,-6,0,-5
1676113662260673,1,-2,-4,3,3,8,-1,6
1676113662260673,-1,0,2,2,3,2,-2,0
1676113662282661,-3,-1,1,-3,-3,-6,0,-4
1676113662282661,0,-1,0,-2,-2,-6,-3,-2
1676113662283660,0,1,-5,-1,1,6,-1,2
1676113662283660,0,-1,-1,2,0,2,0,3
1676113662304648,-1,0,-3,-6,-5,-7,-2,-4
1676113662304648,-1,1,3,-3,-3,-4,-1,-4
1676113662305647,-1,-1,2,7,3,6,2,2
1676113662305647,-1,-5,-5,2,2,3,-1,3
1676113662319639,0,-1,1,-2,-4,-7,0,-4
1676113662319639,1,-1,-1,-5,-5,-10,-2,-3
1676113662320639,1,-2,-4,3,3,5,0,2
1676113662320639,-1,1,0,1,2,2,-1,1
1676113662342627,-3,0,-3,-6,-3,-7,-2,-3
1676113662342627,-3,-1,3,-1,-3,-6,0,-3
1676113662343626,1,1,-1,3,3,9,0,4
1676113662343626,0,-1,-2,3,0,2,-1,1
1676113662365612,-2,0,-4,-7,-6,-8,0,-3
1676113662365612,0,-2,-1,-7,-3,-6,-1,-5
1676113662366613,-1,0,3,6,2,5,-1,3
1676113662366613,-1,1,-2,0,2,3,-1,2
1676113662379604,-1,-2,-1,-8,-3,-6,-3,-4
1676113662379604,-3,-4,-4,2,-5,-7,1,-6
1676113662380608,1,-2,1,3,1,5,1,0
1676113662380608,0,-1,2,7,2,3,-3,1
1676113662402592,-3,-4,-5,-6,-2,-6,-1,-4
1676113662402592,-1,2,2,-5,-3,-8,-2,-2
1676113662403591,0,-2,-1,3,3,6,-1,3
1676113662403591,1,0,2,2,2,3,-1,-1
1676113662424578,0,1,-1,-1,-2,-10,-2,-5
1676113662424578,-3,-2,-9,-8,-2,-6,0,-2
1676113662425579,0,-2,4,7,3,6,0,4
1676113662425579,-1,0,-2,-4,1,1,-1,-2
1676113662439570,0,-1,0,-3,-5,-9,-2,-5
1676113662439570,-1,0,4,-4,-5,-6,-1,-4
1676113662440571,0,-2,-2,7,5,5,0,4
1676113662440571,0,-2,-3,1,1,1,-1,0
1676113662462556,-2,-3,-3,-6,-4,-8,-2,-5
1676113662462556,-1,1,-1,-6,-4,-6,-4,-1
1676113662463557,0,-1,-4,1,1,10,0,4
1676113662463557,-3,0,1,3,2,1,-1,0
1676113662485544,-1,-1,0,-5,-3,-7,-2,-5
1676113662485544,0,1,-1,-2,-3,-4,-2,-3
1676113662486544,1,-1,-2,5,4,6,1,0
1676113662486544,-3,0,1,3,2,0,-1,0
1676113662499536,1,-2,0,-4,-2,-8,-3,-2
1676113662499536,-1,-1,2,-5,-2,-4,-2,0
1676113662507531,-1,-3,-3,4,4,6,1,3
1676113662507531,1,-1,0,3,-1,1,-2,-1
1676113662522524,-3,-1,-2,-5,-4,-7,-1,-5
1676113662522524,-2,0,2,-2,-3,-7,0,-4
1676113662523522,1,1,0,2,1,10,0,4
1676113662523522,-3,-1,-5,-5,0,-1,1,-2
1676113662545510,-1,1,0,1,-4,-9,-2,-3
1676113662545510,-1,-4,-5,-4,-4,-3,0,-3
1676113662546510,2,0,2,4,2,4,0,2
1676113662546510,0,-2,-1,0,-1,-2,-1,0
1676113662559502,-1,-4,-2,-7,-5,-5,1,-4
1676113662559502,-1,1,0,-3,-2,-6,-1,-2
1676113662567499,0,-2,4,6,1,4,0,4
1676113662567499,0,-4,-11,-5,0,0,-3,1
1676113662582489,-3,0,0,-5,-2,-7,0,-3
1676113662582489,0,-1,-2,-4,-2,-4,-2,-5
1676113662583488,0,-2,0,5,0,5,-3,2
1676113662583488,-2,-2,4,1,1,-2,-2,-2
1676113662605476,-2,0,-7,-7,-6,-8,1,-1
1676113662605476,-1,-1,0,-6,-3,-5,-2,-5
1676113662606475,0,0,-1,7,4,5,-1,5
1676113662606475,-2,-2,0,1,0,-1,-1,-2
1676113662619469,-1,2,2,-3,-2,-4,-2,-4
1676113662619469,-3,-2,0,-3,-4,-4,-2,-3
1676113662627464,0,0,0,2,3,5,0,2
1676113662627464,-3,-1,-5,0,-3,-3,-2,0
1676113662642454,-2,-2,0,-4,-4,-5,-1,-5
1676113662642454,-1,2,2,-2,-3,-6,-1,-2
1676113662650450,0,0,2,3,4,6,-1,0
1676113662650450,-1,-2,0,1,0,-2,1,-2
1676113662665443,0,-2,-3,-6,-2,-8,-1,-5
1676113662665443,-1,0,-3,-4,-1,-2,0,-2
1676113662666441,1,0,1,-1,4,4,-1,3
1676113662666441,-4,-4,-6,3,0,-3,-1,-1
1676113662679434,0,0,-4,-8,-4,-6,-1,-3
1676113662679434,-2,-1,3,0,-2,-5,0,0
1676113662687436,1,-1,-7,-4,1,5,-1,1
1676113662687436,0,0,5,-1,0,-2,-2,-3
1676113662702421,-1,-1,2,-1,-5,-7,-1,-5
1676113662702421,0,-2,-2,-3,-3,-2,0,-3
1676113662703420,-3,1,-3,3,1,6,-2,2
1676113662703420,-2,-2,0,1,-1,-3,-1,-1
1676113662725407,0,-1,-2,-4,-3,-7,-2,-3
1676113662725407,-1,1,1,-6,-1,-6,-1,-1
1676113662726406,-1,-1,-2,6,1,1,1,3
1676113662726406,-1,0,0,-2,0,-5,-1,-3
1676113662739400,-2,2,1,-4,-5,-5,-1,-3
1676113662739400,0,-1,-1,-6,-4,-4,-1,-1
1676113662747395,-1,-4,0,1,2,6,1,5
1676113662747395,-2,0,2,4,0,-3,-1,-3
1676113662762410,0,-3,-20,-14,-3,-7,0,-3
1676113662762410,-2,0,1,-3,-2,-4,0,-2
1676113662763386,0,0,2,4,3,4,0,2
1676113662763386,-2,-2,1,-1,-2,-2,-1,-2
1676113662785373,0,1,4,-3,-3,-4,-2,-5
1676113662785373,1,1,-3,-2,-1,-2,2,-1
1676113662786372,-1,-3,-5,1,1,4,-2,3
1676113662786372,-3,-1,2,0,-1,-3,-2,-1
1676113662799365,-3,1,-1,-5,-4,-9,-3,-4
1676113662799365,2,0,-2,-4,-5,-3,-1,-3
1676113662807361,1,0,4,7,3,5,-1,2
1676113662807361,-1,-4,-6,-3,-3,-5,-2,-3
1676113662822352,-3,0,2,-2,-4,-8,-3,-3
1676113662822352,-1,0,1,0,-3,-4,1,-3
1676113662823352,1,-1,1,4,2,2,1,1
1676113662823352,-3,-2,-6,-5,0,-1,1,-4
1676113662845339,0,1,5,0,-1,-6,-1,-3
1676113662845339,-1,-2,-5,-2,-2,-4,-1,0
1676113662846338,-2,-1,1,4,2,5,1,3
1676113662846338,-2,0,-2,-2,0,-3,-3,-3
1676113662868325,-1,0,2,-4,-3,-6,-1,-2
1676113662868325,1,-4,-6,-3,-1,-3,-1,-4
1676113662868325,1,0,-1,2,2,6,2,2
1676113662868325,-1,-1,-3,-5,0,-4,-1,-4
1676113662882317,1,2,1,-3,-2,-5,1,-2
1676113662882317,-1,0,-1,-3,-2,-2,-1,1
1676113662883317,-1,-2,0,4,2,4,-1,0
1676113662883317,-3,-1,1,-3,-2,-5,-4,-2
1676113662905303,-2,-3,0,-3,-3,-7,-3,-2
1676113662905303,0,-1,-1,-1,0,-3,2,-2
1676113662906302,-1,0,0,3,3,4,-1,2
1676113662906302,0,-1,2,-3,-3,-3,1,-4
1676113662928291,-2,-1,-1,-7,-3,-6,-2,-4
1676113662928291,-3,3,0,-1,-1,-1,0,0
1676113662929291,2,0,0,3,2,3,0,2
1676113662929291,-2,-3,-1,0,-2,-5,0,-3
1676113662942283,1,-1,-3,-4,-2,-4,-1,-2
1676113662942283,0,-1,0,-1,-3,-2,-1,0
1676113662943282,3,1,-4,2,2,5,1,3
1676113662943282,-3,0,-1,0,-1,-5,-1,-2
1676113662965270,-1,-2,-1,-4,-3,-5,1,-2
1676113662965270,-1,-1,1,-3,-3,-2,0,0
1676113662966270,-2,0,-1,2,2,3,1,2
1676113662966270,-1,-2,-3,-4,-2,-6,-4,-4
1676113662988258,-1,-1,0,-1,-4,-9,0,-2
1676113662988258,0,1,1,0,-1,-1,-1,-1
1676113662989257,-1,-4,-1,4,1,3,-1,2
1676113662989257,-2,-1,-7,-4,-2,-3,-2,-4
1676113663002248,0,-4,-8,-6,-2,-5,3,-4
1676113663002248,1,-1,1,-3,1,0,-1,0
1676113663003248,0,0,2,3,1,4,-1,3
1676113663003248,-3,-1,1,-2,-2,-3,-1,-2
1676113663025236,-2,1,1,-1,-4,-5,-2,-3
1676113663025236,2,0,-2,-2,0,-1,0,-1
1676113663025236,0,-2,-1,2,1,2,-1,0
1676113663025236,-1,-2,1,0,1,-5,-1,-2
1676113663048224,-1,1,2,-4,-3,-5,1,-4
1676113663048224,1,1,1,-1,-1,1,1,2
1676113663049222,0,-1,-2,2,1,4,1,2
1676113663049222,1,-1,-2,-1,-2,-7,-3,-2
1676113663062215,-2,0,1,-4,-5,-6,-1,-4
1676113663062215,-1,-3,-4,-2,-1,-1,1,0
1676113663063214,-2,-1,1,3,2,5,0,2
1676113663063214,-1,-1,-1,-2,-1,-3,-3,-2
1676113663085202,-2,-1,2,-2,-3,-4,-1,-4
1676113663085202,0,2,1,2,-2,1,-3,-1
1676113663086201,0,-1,-1,4,2,4,-2,4
1676113663086201,-2,-1,0,-5,-2,-5,-1,-3
1676113663108189,-2,-2,-1,0,-2,-5,0,-3
1676113663108189,1,-1,0,-3,0,1,0,2
1676113663109196,0,0,-4,2,1,4,0,5
1676113663109196,-1,0,-1,-4,-4,-3,-1,-2
1676113663122179,0,-1,-1,-5,-4,-5,-3,-4
1676113663122179,0,-1,-2,0,-2,1,0,2
1676113663123179,-1,0,2,1,2,6,-1,1
1676113663123179,0,-2,-1,-3,-2,-6,-4,-2
1676113663145167,-2,0,-3,-6,-3,-6,-2,-4
1676113663145167,1,0,3,1,-1,1,0,-1
1676113663146166,0,0,-8,0,2,4,-2,2
1676113663146166,-3,-2,-2,-1,0,-5,-2,-2
1676113663168154,-1,-1,-2,-5,-1,-6,1,-1
1676113663168154,1,1,2,4,0,1,2,3
1676113663169154,0,-1,1,2,2,5,-2,2
1676113663169154,-3,-2,-4,-2,-3,-6,-1,-4
1676113663182147,0,-2,-2,-3,-3,-5,-4,-2
1676113663182147,-1,0,-2,-1,1,1,-1,-1
1676113663183146,-1,-1,1,6,4,6,0,2
1676113663183146,-2,-1,-1,-2,-2,-5,-2,-4
1676113663205134,1,0,0,-3,-3,-7,-1,-3
1676113663205134,0,-1,-1,-3,-3,1,-2,1
1676113663206134,0,-2,0,4,3,4,1,2
1676113663206134,-2,-1,1,-2,-1,-7,1,-2
1676113663228120,-1,0,1,-4,-4,-4,-3,-4
1676113663228120,2,1,0,3,-1,2,1,0
1676113663229121,1,-5,-5,3,2,4,-1,3
1676113663229121,-2,-1,-1,-5,-3,-5,0,-2
1676113663242112,-1,-1,-1,-3,-2,-6,-1,-3
1676113663242112,-1,1,1,1,-1,1,2,2
1676113663243112,-1,1,-1,2,2,6,-1,2
1676113663243112,-2,-2,-2,-2,-2,-6,-2,-3
1676113663265099,-1,-3,-3,-7,-3,-2,-1,-1
1676113663265099,2,-2,-2,2,1,4,-1,0
1676113663266098,0,-1,0,5,3,4,1,2
1676113663266098,-3,0,-3,-2,-2,-4,-1,-4
1676113663296083,1,0,1,-4,-1,-6,0,-3
1676113663296083,0,-2,-3,0,-2,3,1,2
1676113663296083,-1,-2,1,5,1,3,0,3
1676113663296083,-2,-1,-1,-3,-2,-6,-4,-4
1676113663302078,0,0,1,-3,-4,-5,-1,-4
1676113663302078,-1,0,0,3,1,3,0,2
1676113663303078,0,0,0,4,2,4,-1,2
1676113663303078,-2,-3,-4,-5,-2,-5,-1,-2
1676113663326065,-1,1,1,-4,-2,-4,-1,-2
1676113663326065,-1,1,2,2,1,5,0,3
1676113663326065,-1,0,1,2,3,6,-2,3
1676113663326065,-2,0,0,-2,-3,-5,-1,-3
1676113663348053,-1,-3,-3,-4,-4,-5,-2,-3
1676113663348053,4,0,-1,2,2,3,-1,2
1676113663349052,1,-4,-1,5,1,5,0,2
1676113663349052,0,0,1,-5,-2,-9,-1,-3
1676113663362044,0,-1,-5,-2,-3,-3,0,-2
1676113663362044,0,0,1,-1,2,5,1,1
1676113663363044,-2,0,1,2,4,4,1,2
1676113663363044,-1,-2,0,-4,-3,-7,-2,-4
1676113663385031,-2,0,-1,-2,-5,-7,-3,-4
1676113663385031,0,0,0,2,0,3,0,2
1676113663386031,0,1,-1,5,5,8,0,2
1676113663386031,-3,-1,2,0,-1,-4,-1,-4
1676113663408017,-2,-2,1,-7,-2,-3,0,0
1676113663408017,0,-1,-2,2,-1,4,-1,3
1676113663409018,-1,-1,0,1,2,1,0,4
1676113663409018,-3,-3,-4,-3,-5,-7,-1,-2
1676113663422010,1,1,3,-2,-2,-1,1,-2
1676113663422010,0,-1,-2,-1,-1,3,2,3
1676113663430005,0,0,1,6,2,6,0,3
1676113663430005,-1,-2,-1,-5,-1,-6,-2,-4
1676113663445996,0,0,-2,-1,-4,-5,2,-3
1676113663445996,1,-1,-1,1,3,5,0,1
1676113663445996,0,0,-2,-2,2,5,2,3
1676113663445996,-1,0,-1,1,-2,-6,-2,-3
1676113663467984,-1,-1,-1,-3,-4,-4,-2,-5
1676113663467984,0,-1,-1,0,2,8,1,4
1676113663468983,1,-1,-7,0,2,5,0,3
1676113663468983,-1,-2,2,-5,-3,-5,-3,-3
1676113663482977,0,-1,-1,-3,-3,-6,-1,-2
1676113663482977,0,1,-1,3,1,7,-2,3
1676113663489972,-1,0,1,3,4,5,0,2
1676113663489972,-1,-3,-2,-6,-5,-9,-3,-3
1676113663505962,-2,-1,-3,-3,-2,-4,1,-2
1676113663505962,2,-1,-2,5,2,6,0,5
1676113663505962,-2,-1,1,5,1,4,-1,3
1676113663505962,-2,0,-1,-4,-3,-6,-1,-4
1676113663527950,-1,-1,-4,-3,-3,-5,-2,-2
1676113663527950,2,-1,0,1,4,4,1,1
1676113663528950,-1,0,1,5,3,5,-1,4
1676113663528950,-2,0,2,-5,-3,-9,-2,-6
1676113663541942,-3,-1,-3,-4,-2,-6,-1,-4
1676113663541942,2,0,2,5,1,6,1,3
1676113663549941,1,-2,-7,2,3,5,-1,3
1676113663549941,-2,-1,-1,-6,-4,-6,-1,-3
1676113663564928,-1,1,2,-6,-2,-5,-1,0
1676113663564928,-2,-4,-10,4,2,3,-2,2
1676113663572924,3,-1,3,3,2,7,1,2
1676113663572924,-2,-1,-4,-5,-3,-6,-1,-6
1676113663587915,0,0,-1,-5,-3,-6,-2,-3
1676113663587915,1,2,4,3,0,6,0,3
1676113663588915,-1,-3,-1,3,1,7,0,4
1676113663588915,-2,-2,-6,-5,-3,-7,-2,-5
1676113663601907,-3,-1,2,-1,-3,-4,-1,-3
1676113663601907,2,0,0,2,2,7,1,3
1676113663609903,2,-3,-3,4,2,2,0,2
1676113663609903,-1,0,2,-3,-3,-7,-2,-2
1676113663625892,-1,-2,-7,-5,-2,-5,-2,-2
1676113663625892,1,-1,2,3,3,8,-1,2
1676113663625892,1,0,0,4,1,6,1,2
1676113663625892,-3,-2,-1,-4,-3,-9,-1,-5
1676113663647882,-1,2,1,-3,-2,-6,-1,-2
1676113663647882,0,-2,0,-1,3,5,1,2
1676113663648881,0,1,1,8,4,5,-2,3
1676113663648881,-4,-3,-3,-4,-2,-5,0,-2
1676113663661872,1,0,0,-3,-3,-4,-2,-3
1676113663661872,2,1,1,3,2,7,0,3
1676113663669868,-3,-3,-4,2,2,3,-1,2
1676113663669868,-2,0,1,-3,-2,-7,-1,-4
1676113663685859,-2,-1,1,-5,-3,-4,2,-1
1676113663685859,1,0,-2,5,1,7,2,4
1676113663685859,0,0,5,5,2,6,-2,3
1676113663685859,-1,-2,-7,-9,-3,-6,-2,-2
1676113663707846,-2,1,2,-3,-4,-9,-3,-2
1676113663707846,1,0,0,4,3,5,4,4
1676113663708845,0,-1,0,3,5,6,0,3
1676113663708845,-1,0,0,-2,-6,-8,-2,-5
1676113663721838,-2,-4,-1,-3,-2,-2,-1,-4
1676113663721838,1,0,-1,5,1,7,0,4
1676113663729834,1,-1,0,5,3,5,0,4
1676113663729834,0,-1,0,-6,-5,-8,0,-5
1676113663745825,1,0,-3,-7,-2,-4,-2,-3
1676113663745825,1,0,0,6,2,10,-1,4
1676113663746825,1,-1,-1,4,2,4,1,3
1676113663746825,-4,-3,-2,-6,-2,-8,-3,-5
1676113663767812,-1,-1,2,-2,-2,-5,0,-3
1676113663767812,-2,-1,-8,1,1,9,0,3
1676113663768811,0,0,-1,2,4,6,-2,3
1676113663768811,-3,1,0,-2,-6,-8,-1,-4
1676113663790800,0,-1,-2,-3,-5,-5,0,-5
1676113663790800,0,-1,1,2,1,4,1,4
1676113663791798,-1,-2,1,4,3,5,1,4
1676113663791798,-1,-2,-1,-4,-4,-8,-1,-3
1676113663805791,-3,-1,1,-2,-3,-5,0,-4
1676113663805791,1,-3,-3,5,2,5,-2,3
1676113663806791,-1,0,-1,1,2,6,-1,0
1676113663806791,0,1,1,-6,-5,-8,2,-2
1676113663827779,-2,0,-3,-5,-4,-4,-2,-4
1676113663827779,0,-2,1,9,4,6,0,5
1676113663828778,0,2,-9,-2,2,6,-1,3
1676113663828778,-2,-1,0,-3,-1,-6,-2,-4
1676113663850767,1,-2,0,-4,-4,-5,0,-3
1676113663850767,1,2,0,1,2,7,0,5
1676113663851764,0,-1,0,4,4,5,-2,1
1676113663851764,-1,0,-1,-3,-4,-7,-4,-4
1676113663865756,-3,-4,-3,-2,-4,-7,1,-1
1676113663865756,-1,-1,1,3,3,6,-1,3
1676113663866755,0,0,0,3,1,5,1,1
1676113663866755,-2,-1,-3,-6,-5,-8,-2,-5
1676113663887744,0,-1,-2,-3,-4,-4,-2,-4
1676113663887744,1,-2,2,2,2,7,0,3
1676113663888742,0,-1,1,2,2,3,-2,2
1676113663888742,-4,-3,-2,-4,-4,-7,-2,-4
1676113663910731,-1,0,-2,-4,-3,-5,-1,-2
1676113663910731,3,-1,0,2,2,8,0,4
1676113663911730,-2,-2,0,4,3,3,-1,2
1676113663911730,0,0,0,-4,-3,-8,-1,-4
1676113663923723,-1,-1,-1,-3,-3,-5,-1,-4
1676113663923723,1,-1,-2,3,3,6,-1,1
1676113663932719,0,0,1,4,-1,3,0,2
1676113663932719,0,-1,-2,-6,-4,-8,-2,-4
1676113663947709,-2,0,1,-4,-3,-8,-2,-3
1676113663947709,2,0,1,4,3,8,0,4
1676113663949709,-1,-2,-1,4,1,4,1,-1
1676113663949709,-3,-2,-4,-7,-5,-9,0,-6
1676113663971695,-1,-1,-3,-5,-4,-5,-2,-2
1676113663971695,-1,0,1,6,4,7,1,3
1676113663972695,-1,-1,-2,4,3,2,-2,0
1676113663972695,-1,-2,-2,-6,-3,-9,-3,-5
1676113663984688,-1,-2,-2,-2,-2,-5,-2,-3
1676113663984688,0,-1,-3,4,2,7,0,2
1676113663993683,0,-1,-1,2,2,4,-1,1
1676113663993683,-2,-1,1,-3,-2,-8,-2,-2
1676113664007676,-1,-2,-2,-4,-3,-6,-3,-5
1676113664007676,0,1,1,2,4,5,0,4
1676113664009674,0,-3,-2,3,3,3,0,1
1676113664009674,0,0,-1,-5,-4,-7,-4,-3
1676113664030662,-1,-1,-1,-5,-5,-6,0,-4
1676113664030662,0,-1,0,3,0,6,-1,4
1676113664032662,0,0,-1,1,2,4,-1,1
1676113664032662,-2,-1,-2,-6,-5,-5,-1,-5
1676113664044654,0,-1,-1,-4,-3,-5,-1,-4
1676113664044654,2,0,0,3,2,6,-1,2
1676113664053650,-1,-1,0,3,1,0,2,2
1676113664053650,-2,-1,-2,-4,-4,-9,-3,-4
1676113664067641,1,-1,-1,-6,-5,-6,0,-3
1676113664067641,0,-2,-1,6,4,9,2,2
1676113664069640,-3,-3,-3,1,3,2,-1,1
1676113664069640,1,-1,-2,-5,-4,-8,-1,-4
1676113664090628,-2,1,2,-3,-4,-7,-3,-3
1676113664090628,1,-1,-3,3,2,7,1,3
1676113664092626,-2,-2,-1,3,4,3,-1,2
1676113664092626,-3,-1,-2,-5,-3,-5,-2,-5
1676113664104620,2,-1,-2,-4,-3,-6,-2,-3
1676113664104620,0,1,-1,3,3,7,2,6
1676113664113616,-1,-2,0,-1,-1,1,0,-2
1676113664113616,-2,0,-1,-4,-4,-9,0,-4
1676113664128606,-3,0,-2,-3,-2,-4,-1,0
1676113664128606,0,0,0,5,2,8,0,5
1676113664129605,-1,-2,-2,1,0,3,-1,4
1676113664129605,-1,-1,0,-7,-5,-10,-2,-7
1676113664150592,-1,2,-1,-2,-2,-3,-1,-9
1676113664150592,3,1,-2,5,7,7,0,3
1676113664152591,-7,-2,-2,0,0,-1,-3,1
1676113664152591,-1,-6,-2,-4,-3,-8,-4,-5
1676113664164584,-2,4,0,-1,-4,-8,-3,0
1676113664164584,1,-5,-2,5,1,7,-1,2
1676113664173579,2,-1,1,1,-1,1,-2,-1
1676113664173579,3,10,9,-4,-4,-7,2,-2
1676113664188572,2,-6,-8,-8,-2,-4,2,2
1676113664188572,-3,0,-3,6,2,6,0,0
1676113664189570,-5,-4,-1,-2,1,-1,0,7
1676113664189570,-19,-11,-2,-3,-4,-9,-5,-6
1676113664210558,11,1,0,-2,-1,-2,-4,-8
1676113664210558,1,0,0,3,2,9,2,5
1676113664212559,14,-2,-5,-3,-4,-6,-6,-8
1676113664212559,-15,3,3,-3,-1,-4,0,1
1676113664224550,2,7,8,9,8,2,3,5
1676113664224550,2,-5,1,5,6,9,-2,1
1676113664233546,-1,-4,7,-4,-3,-7,-1,-2
1676113664233546,9,-5,-5,-6,-5,-8,0,-9
1676113664247537,-18,-7,-13,-11,-6,-3,0,-4
1676113664247537,5,-9,5,13,3,4,-2,0
1676113664249537,-8,-9,-32,-22,-12,-9,-4,-7
1676113664249537,8,12,5,-3,2,-4,0,2
1676113664270524,3,9,8,2,-1,-1,0,-3
1676113664270524,5,17,14,9,3,6,3,9
1676113664272523,-9,2,14,8,3,-1,-1,-1
1676113664272523,-2,-6,-14,-12,-8,-8,-1,0
1676113664284517,-6,-4,-3,-4,-7,-7,0,-4
1676113664284517,0,-2,-7,2,2,4,-1,7
1676113664293512,-2,-2,3,6,1,1,-4,-8
1676113664293512,4,1,-1,-4,-1,0,0,-12
1676113664308503,1,1,6,1,2,-1,-1,0
1676113664308503,-9,-11,-7,-5,-1,3,-2,3
1676113664309502,2,3,2,4,6,1,1,-1
1676113664309502,-2,2,-1,-4,-7,-7,-2,-2
1676113664330491,-1,-1,-1,-8,-9,-7,-1,-5
1676113664330491,-3,-2,-5,0,-2,3,0,-1
1676113664332492,-4,-6,-1,3,3,-2,1,-3
1676113664332492,-1,-3,-3,-8,-6,-14,-3,-3
1676113664344483,0,-4,1,1,-1,0,-1,-1
1676113664344483,0,6,-1,2,0,1,-4,0
1676113664359474,-4,0,-1,-4,-7,-9,-4,-19
1676113664359474,0,-5,-1,-2,-3,-4,0,17
1676113664368469,3,-1,-1,-5,1,7,-1,1
1676113664368469,-1,1,0,3,3,5,0,9
1676113664369468,-1,0,0,0,1,-4,-2,-5
1676113664369468,-1,-2,-3,-5,-5,-4,1,-14
1676113664390457,0,0,-1,-2,0,-5,0,2
1676113664390457,0,2,0,8,5,7,0,-2
1676113664392455,-3,-5,-9,-18,-12,-12,-1,-6
1676113664392455,-1,-1,-6,-8,-7,-10,-1,0
1676113664404449,-1,-2,11,20,15,16,3,4
1676113664404449,-3,-5,-2,-1,1,2,-3,0
1676113664413443,-2,5,-2,-4,-2,-5,-2,1
1676113664413443,2,5,4,-5,-2,-5,1,-4
1676113664428435,1,4,0,-3,-8,-3,0,2
1676113664428435,-3,6,8,2,4,4,0,-1
1676113664429434,-4,-10,-10,-2,-5,-7,-4,-2
1676113664429434,-2,-1,-5,-17,-11,-9,-3,-7
1676113664450424,-1,-1,-4,-4,-6,-2,0,-1
1676113664450424,-2,-3,1,6,6,1,1,4
1676113664452421,-2,1,5,1,-1,-11,-3,-3
1676113664452421,-1,0,2,0,2,3,2,-2
1676113664464414,0,-1,-3,-2,-6,1,-1,0
1676113664464414,0,2,-1,6,5,6,0,2
1676113664473409,2,5,4,-4,-4,-9,-1,-3
1676113664473409,-3,-9,-1,-1,-1,-3,1,-6
1676113664488400,-4,-8,-12,-11,-3,-2,-3,-3
1676113664488400,-2,-7,-9,-4,-1,0,1,1
1676113664489404,0,11,3,-1,-2,-15,-4,-6
1676113664489404,8,12,13,29,8,3,4,2
1676113664510390,-5,-21,-8,-45,-10,2,-1,6
1676113664510390,-7,-18,-29,-16,5,6,-2,-3
1676113664512387,-1,7,12,-3,-4,-10,1,-5
1676113664512387,0,7,9,-7,-3,-3,-2,-3
1676113664524380,7,16,9,31,4,4,-1,5
1676113664524380,4,29,98,69,15,8,2,4
1676113664533375,3,-6,-44,-53,-5,-4,2,-4
1676113664533375,-11,-7,43,19,8,-4,-2,-7
1676113664548367,-1,-19,-47,-45,-14,6,-3,3
1676113664548367,-2,1,19,-4,-21,5,-1,2
1676113664549365,5,21,48,51,18,-9,-3,-4
1676113664549365,16,33,42,16,6,0,4,7
1676113664570354,-12,-12,-3,39,16,10,5,6
1676113664570354,-15,-16,-49,-32,-2,-2,-7,-8
1676113664572353,-10,-38,-48,-41,-19,-7,-5,-10
1676113664572353,-1,-18,-81,-30,-9,-3,-3,-4
1676113664584346,24,58,105,98,1,4,3,15
1676113664584346,20,21,47,81,20,-1,2,13
1676113664593341,-27,-30,-19,-92,6,-4,-1,-9
1676113664593341,-9,7,52,-42,-16,-1,-1,-6
1676113664608333,6,20,38,83,17,21,6,8
1676113664608333,-8,-34,-56,-98,-17,-6,-6,-3
1676113664609332,12,58,83,93,10,-17,3,-2
1676113664609332,-21,-111,-100,-117,-30,1,-10,-8
1676113664630320,7,30,127,59,5,20,3,6
1676113664630320,12,14,38,60,23,-6,-1,6
1676113664632319,-6,6,30,38,0,-15,-3,-3
1676113664632319,1,15,-25,10,6,-10,-2,-2
1676113664644312,1,-17,-59,-16,1,7,-4,-1
1676113664644312,-9,-6,-9,-27,-2,8,0,-3
1676113664653306,4,-17,-78,-43,-20,-14,-3,-3
1676113664653306,8,51,93,53,9,2,7,1
1676113664667298,-14,-52,-70,-67,-5,13,-5,-2
1676113664667298,-3,13,50,42,3,9,3,1
1676113664682290,-11,-10,-22,-31,-10,-9,-2,-8
1676113664682290,10,21,23,38,9,-5,2,3
1676113664690286,1,6,1,7,20,-4,0,3
1676113664690286,2,-10,-36,-28,0,0,-2,-1
1676113664692284,3,11,22,-1,-18,-12,-3,-7
1676113664692284,-1,-16,-35,-3,-13,-11,-4,-7
1676113664713272,-2,3,20,-12,5,3,0,1
1676113664713272,-9,-26,-83,-58,-13,-3,-2,-6
1676113664714271,7,5,40,14,-14,-8,0,-1
1676113664714271,-11,-6,-68,2,0,1,1,-2
1676113664727264,11,12,33,0,0,2,1,2
1676113664727264,-2,3,5,11,1,4,-2,-1
1676113664734262,-1,-6,-16,-25,-5,-11,-4,-5
1676113664734262,5,2,20,8,2,0,0,-1
1676113664750251,-2,-5,-31,8,5,11,0,2
1676113664750251,10,3,-8,-1,2,4,0,3
1676113664752253,-21,-13,0,-9,-4,-7,-2,-9
1676113664752253,3,4,26,24,-2,-6,-1,-1
1676113664773238,-4,-9,-32,-20,0,1,-1,2
1676113664773238,-2,-3,-9,-14,0,7,1,0
1676113664774237,6,6,22,18,-5,2,1,1
1676113664774237,-3,2,7,4,3,-1,-2,-2
1676113664787232,-1,0,-18,-14,10,-1,0,4
1676113664787232,3,3,9,16,3,-3,-4,3
1676113664794227,-4,-9,-7,-5,-7,-5,-3,-5
1676113664794227,-2,-1,-11,-7,2,14,1,-4
1676113664810218,0,-2,-9,-1,5,7,0,1
1676113664810218,-3,6,24,22,0,-9,-1,-1
1676113664812216,-2,-1,-5,-6,-4,-13,-2,-5
1676113664812216,3,3,-4,-16,-14,-17,2,2
1676113664833205,-2,-2,-4,-5,-9,12,0,-2
1676113664833205,-4,-2,2,2,-2,3,-1,0
1676113664834203,1,-3,-4,-6,-5,-9,-2,-4
1676113664834203,0,1,-2,-2,-1,-9,-3,-3
1676113664847196,-2,-2,-4,-1,-3,1,2,2
1676113664847196,-1,-5,-6,4,4,4,-1,-1
1676113664854196,1,-3,-2,-9,0,3,-1,-5
1676113664854196,1,3,13,3,0,-3,0,1
1676113664870183,-1,-3,-10,-8,-1,-5,1,-1
1676113664870183,-3,4,6,-2,-7,3,0,1
1676113664872182,2,-5,-4,-4,-1,-9,-5,-4
1676113664872182,0,1,0,-3,0,5,2,-5
1676113664893169,-3,-6,-7,-4,-6,-4,-3,0
1676113664893169,1,-1,-16,2,-2,-33,-9,-4
1676113664895169,-3,-2,-2,-6,-10,-1,0,-1
1676113664895169,2,5,4,7,-7,-14,-3,2
1676113664907161,-3,-6,-1,-13,6,17,0,-2
1676113664907161,-3,-4,-7,3,9,9,0,-2
1676113664914157,-5,-5,-9,-5,2,-7,-4,-6
1676113664914157,-2,-3,-9,-14,-19,-30,-10,-5
1676113664930148,7,9,5,9,1,12,5,7
1676113664930148,-3,-2,6,4,3,19,2,2
1676113664932147,1,-1,-3,-3,-2,-1,0,-1
1676113664932147,6,4,-3,1,-6,-30,-4,2
1676113664953135,1,-3,-12,-6,-5,18,5,3
1676113664953135,-1,2,19,-7,-2,49,11,9
1676113664954135,1,0,-6,-7,-7,-19,-4,-1
1676113664954135,-2,0,5,5,5,1,-2,-1
1676113664967127,-2,2,5,4,0,0,-2,-1
1676113664967127,5,4,2,20,15,-7,-2,3
1676113664976122,-1,-1,2,-4,-10,-6,-1,4
1676113664976122,-3,-1,2,-6,1,17,3,-1
1676113664991114,-2,0,-2,-7,-4,6,1,-2
1676113664991114,-1,-4,-3,-1,-8,-5,-3,-2
1676113664992113,1,0,1,7,10,2,0,-3
1676113664992113,-4,-5,0,2,10,2,-5,-4
1676113665013101,0,-1,2,5,5,-4,-3,1
1676113665013101,0,-1,-4,-6,-9,-6,-2,4
1676113665015101,-5,-4,-7,-3,8,19,2,-5
1676113665015101,-2,2,10,7,-6,-3,1,-3
1676113665027093,-1,-1,0,-6,10,-4,-1,-2
1676113665027093,2,1,1,4,12,14,0,2
1676113665036090,6,9,11,9,24,25,10,6
1676113665036090,7,2,-14,-16,-2,-10,0,-1
1676113665051080,-13,-14,-5,6,18,19,-2,-7
1676113665051080,0,2,1,2,-17,-6,-4,2
1676113665052078,2,3,4,-8,-9,2,1,1
1676113665052078,1,-2,-17,-12,-13,-21,-2,-4
1676113665073065,1,2,12,11,10,-12,-1,0
1676113665073065,-1,-1,-5,-2,8,18,0,2
1676113665075066,-3,-6,1,7,-3,10,-6,-4
1676113665075066,-3,-1,6,-4,-4,11,3,-2
1676113665087058,2,0,-9,-10,-26,-32,-5,2
1676113665087058,-3,-2,1,5,5,11,-1,1
1676113665096054,2,3,0,-1,-10,24,4,0
1676113665096054,-10,-7,9,1,-11,-17,0,-4
1676113665110048,6,3,-3,4,11,-18,0,-1
1676113665110048,2,-1,-5,2,-7,-1,-5,2
1676113665112045,-5,-6,-6,-11,-27,-16,-4,-4
1676113665112045,-4,-3,8,14,25,1,-1,-2
1676113665133033,2,1,-2,1,-1,-3,1,3
1676113665133033,-4,-6,-6,-3,-9,11,-3,-1
1676113665135033,3,0,-5,-4,-19,-41,-7,-1
1676113665135033,0,3,9,-4,-6,7,7,-1
1676113665147024,4,-3,-17,-13,-23,-51,-5,3
1676113665147024,-7,-3,3,-3,0,58,8,-3
1676113665156020,-5,-3,-9,-4,-5,-38,-7,0
1676113665156020,-1,-2,-7,-12,-10,-19,0,-1
1676113665170011,3,0,-1,-4,-7,-11,-2,0
1676113665170011,2,2,6,11,10,11,1,4
1676113665172010,-3,-2,1,2,2,10,-2,-4
1676113665172010,-3,-2,-2,-6,-4,-18,-1,-4
1676113665192998,-3,-1,1,-3,-4,-2,-1,0
1676113665192998,2,-2,-9,0,0,28,-4,3
1676113665194997,-1,0,5,6,9,10,-1,-3
1676113665194997,0,-1,-2,-1,-2,-34,-5,-1
1676113665206990,-1,1,5,2,0,-1,0,1
1676113665206990,4,5,4,9,12,21,3,5
1676113665215986,-4,-4,-5,-1,6,8,-1,-3
1676113665215986,1,0,3,1,-3,-29,-2,1
1676113665229977,2,-1,3,9,13,3,5,1
1676113665229977,-2,-2,3,7,9,19,-2,3
1676113665236974,-2,-5,-12,-13,-16,-18,-6,-5
1676113665236974,3,1,-3,-8,-6,-25,-4,-3
1676113665252966,-4,-6,-5,-6,-21,-5,-3,-3
1676113665252966,4,0,-1,8,11,11,0,5
1676113665254964,-2,0,4,4,5,-6,0,-1
1676113665254964,0,0,-1,-5,-7,-17,1,-3
1676113665266957,2,1,-1,-2,-2,5,1,0
1676113665266957,-1,0,1,1,-4,9,1,2
1676113665275951,0,0,5,3,6,-1,1,-1
1676113665275951,-2,0,2,5,11,0,0,-5
1676113665290942,3,2,-1,-2,-2,7,-1,0
1676113665290942,-3,-2,-2,4,-2,4,-2,0
1676113665291943,7,3,4,5,15,3,-1,0
1676113665291943,13,0,-2,-4,-2,-16,0,-2
1676113665312930,-2,-3,-1,-1,-4,-2,0,4
1676113665312930,-39,-3,1,5,8,10,2,-2
1676113665314929,14,-1,6,5,0,-5,-1,-8
1676113665314929,1,0,-2,-6,1,-6,0,-5
1676113665326922,4,1,1,2,6,2,-7,3
1676113665326922,16,0,-1,0,-3,-5,0,5
1676113665335920,-13,-3,-2,-3,-3,-17,1,-1
1676113665335920,-5,-3,-4,-5,-6,-14,-1,-4
1676113665352916,7,3,4,4,-2,1,1,3
1676113665352916,-1,-1,-1,2,4,3,-1,-1
1676113665352916,-4,0,-2,-8,-14,-8,-2,-4
1676113665352916,0,-3,-3,-2,4,-6,-2,-3
1676113665372895,-10,2,2,3,3,7,-1,2
1676113665372895,2,1,-2,-4,-6,-1,-2,3
1676113665374895,4,0,-1,0,4,-13,0,-1
1676113665374895,-7,-1,-3,-5,-6,-8,2,0
1676113665386888,-4,-6,-4,1,2,5,-1,-1
1676113665386888,6,-1,-3,-2,1,-2,0,-1
1676113665395883,3,3,1,-5,5,-6,-1,-1
1676113665395883,-11,-1,1,2,-3,-4,-2,-2
1676113665410874,3,-2,-1,3,3,4,0,3
1676113665410874,-4,-1,-2,1,-1,1,-1,0
1676113665411873,3,-4,-1,-4,-1,-6,-2,-3
1676113665411873,-10,-1,-3,-2,0,0,-2,-3
1676113665432862,4,-1,-3,-1,1,2,-1,0
1676113665432862,7,-1,0,3,6,0,0,1
1676113665434860,-7,2,-1,-5,-8,-20,-3,-6
1676113665434860,3,1,-1,1,5,7,0,-1
1676113665446855,2,-1,3,8,13,13,0,4
1676113665446855,-2,-2,1,-4,-6,-1,-3,-3
1676113665455849,-1,-1,0,-7,-3,-10,-1,-2
1676113665455849,-5,-2,1,-2,-5,-3,-1,0
1676113665470839,11,-2,-1,-1,0,17,0,1
1676113665470839,-16,-6,-3,-1,4,1,0,-1
1676113665471839,5,1,0,-3,-1,-4,2,-3
1676113665471839,22,2,2,-1,0,2,1,3
1676113665492829,-32,-1,3,8,5,14,4,2
1676113665492829,-8,-7,-3,-1,1,1,-4,-12
1676113665494826,-3,-2,-1,-4,-2,-8,-3,-6
1676113665494826,0,2,2,-1,1,10,1,1
1676113665506820,22,5,-3,2,5,5,0,7
1676113665506820,0,1,2,4,2,-2,4,1
1676113665515814,-11,0,-2,-4,-1,-13,-2,-4
1676113665515814,10,-2,-2,-2,-1,3,1,3
1676113665528807,-4,-3,-3,2,-6,6,-3,0
1676113665528807,2,1,-3,-2,2,-6,-2,0
1676113665537802,-4,-5,-1,-3,-3,-8,-3,-5
1676113665537802,-3,1,3,-3,-7,3,0,0
1676113665552794,-6,0,-3,3,11,21,3,1
1676113665552794,3,-6,-6,-2,0,-8,-2,1
1676113665554793,5,4,1,-2,-3,-5,-1,-2
1676113665554793,-9,1,0,1,6,9,0,-2
1676113665566785,5,-7,2,2,-6,3,-2,-2
1676113665566785,-10,2,0,-5,-3,-13,0,5
1676113665575780,-12,-7,-2,-5,-2,-6,-1,-9
1676113665575780,-2,-3,-3,-1,-2,6,-2,-2
1676113665589772,3,4,0,5,1,7,-1,3
1676113665589772,29,0,1,-3,-4,-13,-3,-2
1676113665596768,-24,2,3,-3,-4,-10,2,2
1676113665596768,-18,-2,5,4,6,8,-2,-7
1676113665612759,-1,-7,-5,0,-1,2,1,6
1676113665612759,2,3,-10,-4,0,-11,-5,-9
1676113665614757,5,0,0,-4,-3,-2,1,0
1676113665614757,34,-8,-1,0,1,7,-2,4
1676113665626750,-31,8,2,6,5,12,1,0
1676113665626750,-19,-5,8,-2,-4,-15,-3,-9
1676113665635745,7,1,-18,-14,-18,-12,-2,-4
1676113665635745,-10,0,0,4,14,10,1,0
1676113665649738,13,-15,-3,6,4,3,-1,7
1676113665649738,-3,2,0,-1,-5,-15,0,1
1676113665656733,10,7,6,-1,-3,-5,-2,-4
1676113665656733,-10,6,1,-4,-7,6,0,1
1676113665672725,9,3,3,3,4,6,-2,1
1676113665672725,-8,0,-1,1,-1,-8,0,1
1676113665674723,6,0,8,1,3,-2,1,-2
1676113665674723,-7,-5,-10,-6,-6,3,-2,-2
1676113665695711,5,-2,8,7,6,11,2,0
1676113665695711,-10,2,-17,-10,-6,-8,0,-5
1676113665697710,3,-2,2,2,6,-7,-5,-4
1676113665697710,6,-11,4,-7,-14,-2,-2,0
1676113665709703,14,7,-9,7,5,4,1,0
1676113665709703,12,2,16,5,7,-12,2,6
1676113665716700,-29,0,-2,4,4,4,3,-4
1676113665716700,-9,-5,-14,3,13,0,-6,-8
1676113665732690,6,-2,0,-15,-3,2,-1,-1
1676113665732690,14,3,12,-15,-28,-7,1,3
1676113665734691,6,2,1,16,-4,-4,-1,-1
1676113665734691,-1,3,7,-1,0,8,2,2
1676113665755677,-10,1,-6,2,2,1,0,1
1676113665755677,0,-3,-6,0,11,-7,-2,-3
1676113665757676,-3,-3,5,-19,-16,-8,0,-1
1676113665757676,-4,-5,-6,10,12,2,0,-1
1676113665769671,-2,3,4,12,19,6,1,2
1676113665769671,-5,-2,-1,-15,-34,-5,1,-1
1676113665776664,3,1,0,-6,13,-3,-1,-2
1676113665776664,0,2,-1,-14,-25,10,1,2
1676113665793655,5,2,4,3,5,7,-2,1
1676113665793655,-6,-8,-7,18,17,-6,0,-2
1676113665794655,-3,-8,-9,-2,-4,-8,-2,-2
1676113665794655,-1,6,-8,-19,-8,2,-4,-2
1676113665815642,-6,-3,-5,-6,0,10,0,1
1676113665815642,1,-13,16,27,9,-12,-6,-3
1676113665817641,1,4,0,21,3,-3,3,-1
1676113665817641,0,6,3,-6,-1,5,1,-2
1676113665829634,-2,2,2,-13,11,3,-2,1
1676113665829634,2,2,-7,-13,-5,-8,1,-1
1676113665836631,-3,-8,-2,0,7,-6,-2,-6
1676113665836631,0,-3,-1,11,-8,0,0,-3
1676113665852621,-1,8,6,-1,-6,3,0,4
1676113665852621,-4,-5,-4,0,8,-8,1,-2
1676113665854620,-2,-6,-14,-13,-3,-2,-6,-6
1676113665854620,2,-1,9,-1,-10,4,2,1
1676113665875608,-8,-11,-28,-6,-17,-2,0,0
1676113665875608,2,7,-1,8,5,-4,-2,1
1676113665876608,0,1,3,-3,-10,-4,0,-1
1676113665876608,-3,-2,0,6,13,2,-2,-3
1676113665889603,-4,1,4,6,3,5,-1,3
1676113665889603,1,4,1,-2,4,-10,-1,-1
1676113665896598,1,2,-7,-18,-7,-4,1,-2
1676113665896598,-4,-5,-1,9,12,1,0,-1
1676113665912587,0,1,10,17,-3,3,-2,-1
1676113665912587,-1,4,-9,-13,0,-6,-4,-2
1676113665914587,0,-4,1,-25,-16,-2,0,-1
1676113665914587,-1,-2,9,23,2,1,4,4
1676113665935573,-5,-5,-1,2,-3,4,-2,1
1676113665935573,0,4,-2,-29,-15,-5,-1,-2
1676113665936573,-3,2,1,18,11,-6,2,-2
1676113665936573,3,3,0,-16,-12,2,-2,-1
1676113665949566,-1,-13,7,24,3,1,-3,-2
1676113665949566,0,2,-5,-5,5,-3,-2,-3
1676113665958561,1,8,11,21,6,-5,-3,-3
1676113665958561,-3,-1,6,-28,-20,1,0,0
1676113665972554,2,-2,-19,9,15,4,0,2
1676113665972554,6,3,5,-31,-14,-4,-1,2
1676113665979549,-17,-16,-30,-9,0,-2,1,-5
1676113665979549,6,4,8,11,6,-3,-1,-6
1676113665995541,1,3,14,5,0,5,0,-1
1676113665995541,-6,-2,-6,13,7,-1,-1,-4
1676113665997540,3,3,4,-5,4,-2,2,2
1676113665997540,-4,-1,-7,2,1,0,-2,1
1676113666009532,2,-2,-8,-38,-21,-3,0,0
1676113666009532,-2,-4,-4,24,14,-7,-1,-2
1676113666018527,1,7,19,7,12,3,0,0
1676113666018527,-2,1,3,15,12,2,0,0
1676113666032524,4,7,-8,-11,-7,1,-3,1
1676113666032524,5,5,5,-2,-7,-2,-1,-1
1676113666034517,-21,-29,-5,0,-3,-11,-5,-8
1676113666034517,2,-12,-14,5,-7,-1,-5,-6
1676113666055507,-3,5,11,-29,-10,0,3,2
1676113666055507,0,-4,-3,41,11,-7,-3,-4
1676113666057505,6,-2,-23,-36,-12,4,-2,-1
1676113666057505,5,12,7,-33,18,4,2,5
1676113666069498,-5,-6,0,33,12,2,1,-2
1676113666069498,5,1,2,-14,-9,2,1,3
1676113666078493,6,10,16,12,-1,-4,-2,-3
1676113666078493,-11,-7,-11,6,-8,-3,-1,-3
1676113666092484,3,1,-9,-9,3,6,0,-1
1676113666092484,-6,-1,1,-1,1,1,-1,-1
1676113666094483,0,6,6,-1,-13,-2,-2,-2
1676113666094483,-1,-1,-6,-7,-5,0,-1,0
1676113666115473,3,-1,1,5,7,8,-2,2
1676113666115473,-4,-13,-12,10,2,-4,-5,-5
1676113666117470,-5,-1,6,-19,-9,-2,1,1
1676113666117470,4,4,5,25,7,-9,1,0
1676113666129463,-3,0,0,-6,-3,-8,-1,1
1676113666129463,5,6,4,9,8,-4,0,0
1676113666138459,-7,0,-10,8,-2,-8,3,1
1676113666138459,1,-13,5,-6,-3,-7,-3,-8
1676113666153450,-4,-3,6,-14,-15,2,-3,-1
1676113666153450,-1,2,4,2,6,2,4,0
1676113666154450,4,10,10,-27,-12,-2,-3,-2
1676113666154450,-2,4,-4,20,-1,-2,0,-4
1676113666175437,0,-5,-11,14,4,1,0,-1
1676113666175437,1,0,2,-16,4,0,0,-1
1676113666177436,5,5,2,4,-2,-3,-2,-1
1676113666177436,-3,-1,-9,-12,-5,0,-1,0
1676113666189431,0,-1,7,3,4,8,-2,2
1676113666189431,-9,0,5,15,-1,1,-1,0
1676113666198424,1,-10,-11,-22,-7,-3,-2,-3
1676113666198424,-5,-6,-3,-18,-8,-1,0,-2
1676113666213415,-1,-1,-2,35,12,-1,0,0
1676113666213415,-3,-1,1,-15,-1,2,-1,-3
1676113666214414,3,1,-4,-1,1,-5,-3,-2
1676113666214414,3,3,-1,-16,-5,-3,1,-1
1676113666235402,-7,-2,-5,10,-2,1,-2,0
1676113666235402,-1,-3,-4,-10,-2,-2,-3,-1
1676113666237402,0,-2,9,13,3,-2,-1,-3
1676113666237402,-4,1,-3,-29,-11,-1,-2,-1
1676113666249395,1,1,3,23,11,2,0,1
1676113666249395,-3,-5,-9,-11,-6,-5,-3,-3
1676113666258390,2,0,-3,-17,-6,-5,1,0
1676113666258390,-1,1,4,24,6,4,1,0
1676113666273385,-4,-3,2,-4,0,-3,-2,-2
1676113666273385,-3,-4,4,7,-1,0,-2,-2
1676113666274380,1,2,-4,-11,-3,-3,-1,-3
1676113666274380,-2,-3,-5,6,-5,-4,-1,-3
1676113666311359,1,4,7,22,20,3,0,1
1676113666311359,-2,-1,-6,-8,-1,-4,-1,1
1676113666312360,1,1,1,14,-3,-3,0,-2
1676113666312360,-6,-2,-8,-1,12,0,-2,-3
1676113666313360,2,3,7,-35,-23,3,1,0
1676113666313360,-3,-6,-1,7,-2,-5,-2,0
1676113666318356,-2,1,-2,15,7,-1,-1,-3
1676113666318356,4,4,-13,-19,-10,-1,1,2
1676113666333347,1,1,0,-1,5,1,0,1
1676113666333347,-2,-2,12,21,3,-4,1,0
1676113666334347,-1,-4,4,-6,-8,-2,-3,-5
1676113666334347,2,2,-7,-6,-3,-2,1,0
1676113666355335,-3,0,-5,-4,10,4,-1,1
1676113666355335,1,2,-4,-22,-13,-3,-3,-2
1676113666357333,1,-1,-3,7,4,-7,1,1
1676113666357333,-2,-2,7,12,1,-1,0,0
1676113666369328,1,2,-1,-6,-11,1,-1,0
1676113666369328,-6,-2,3,14,19,2,-1,0
1676113666378320,1,-2,-2,-35,-8,-2,-3,-3
1676113666378320,-2,-1,4,9,-5,0,0,-2
1676113666393313,1,-2,-4,-14,-7,0,0,0
1676113666393313,-1,-3,-6,28,3,-1,-1,-2
1676113666394313,-2,-1,-1,-7,2,2,-1,-3
1676113666394313,1,7,13,-2,-3,-3,-2,1
1676113666415301,-2,-4,-4,10,8,2,-1,3
1676113666415301,2,-1,-7,-13,-5,0,-2,-2
1676113666417302,-9,-6,-10,-20,-10,-2,1,-1
1676113666417302,1,0,4,-6,-4,-1,-1,-2
1676113666429293,2,3,6,25,10,2,-1,1
1676113666429293,-1,-1,-5,-3,-4,-1,-2,0
1676113666438286,0,1,-2,3,-5,-5,0,-2
1676113666438286,-2,-1,-4,-9,2,-2,-1,-3
1676113666453279,-2,-4,2,-4,-7,3,0,0
1676113666453279,2,-3,3,-2,-1,-3,-1,-1
1676113666454280,0,0,-1,14,8,-6,0,-3
1676113666454280,-2,-1,-1,-10,-8,-3,1,-2
1676113666475267,0,-1,-8,-5,1,4,-1,0
1676113666475267,-3,3,3,5,6,4,2,2
1676113666477264,-1,1,4,2,1,-5,-2,-3
1676113666477264,-1,-2,1,7,0,-6,-1,-4
1676113666489259,1,-3,-7,2,0,6,-1,2
1676113666489259,-2,-4,-6,-40,-13,-1,-1,-2
1676113666498253,-2,1,4,59,25,-1,-2,-3
1676113666498253,2,1,-4,-15,-4,0,-1,-2
1676113666512245,0,-5,-5,6,-5,3,1,1
1676113666512245,-9,-3,0,-38,-14,-2,-3,-3
1676113666519241,-1,-2,1,22,7,-5,-1,-2
1676113666519241,1,0,4,11,1,-2,-2,1
1676113666535232,-1,2,-1,-7,0,4,-1,0
1676113666535232,0,0,-5,9,1,0,0,-1
1676113666537231,2,0,-3,-33,-10,-4,2,-2
1676113666537231,1,-1,-3,-3,-5,-4,-1,-2
1676113666549223,-2,-4,-3,0,-4,3,0,1
1676113666549223,-1,-4,2,10,0,-3,-1,0
1676113666558219,-2,-1,3,-1,-2,-4,-2,-4
1676113666558219,1,1,-4,-10,-3,0,-2,-2
1676113666572210,-2,0,-3,-2,-5,3,-2,-2
1676113666572210,-1,-1,0,22,24,-1,-2,1
1676113666579217,2,-1,-3,-15,-17,-7,-2,-1
1676113666579217,-3,-3,-1,4,13,-1,1,-2
1676113666595197,2,0,1,-3,1,6,-2,3
1676113666595197,-1,-3,-3,-10,-12,-2,-2,-2
1676113666597197,-1,0,-3,-4,0,-3,0,-3
1676113666597197,1,-2,-1,-14,-7,-3,0,-2
1676113666618184,-3,-2,0,3,0,-2,-1,0
1676113666618184,-1,0,-4,-6,1,2,1,1
1676113666619185,-1,-1,-3,-18,-12,-7,0,-4
1676113666619185,-3,-3,-7,-21,1,3,3,-2
1676113666632177,4,4,16,37,12,8,1,3
1676113666632177,-3,0,-2,-1,-7,-2,-4,-1
1676113666639173,-2,-2,-3,-11,-7,-6,-1,-2
1676113666639173,-2,0,-3,5,2,-1,-2,-1
1676113666655163,0,0,-4,-10,1,3,0,1
1676113666655163,2,-1,3,3,1,-2,-1,-2
1676113666657162,-1,1,0,-13,-9,1,1,-1
1676113666657162,-2,0,-2,5,-3,-6,-2,-1
1676113666678152,-3,-3,0,22,10,4,0,3
1676113666678152,0,0,-3,-9,-1,-2,-1,-3
1676113666680149,-1,-1,-2,19,9,-7,-1,-4
1676113666680149,-1,-2,0,-20,1,6,-2,1
1676113666692144,0,4,5,4,-9,0,0,0
1676113666692144,0,0,-3,-5,-7,-5,-1,0
1676113666699139,0,-3,1,-2,11,-4,0,-3
1676113666699139,3,-2,-1,0,-11,3,-2,-2
1676113666715129,-3,-3,-7,-6,10,4,-1,1
1676113666715129,1,3,2,17,-5,-1,0,-3
1676113666717127,-1,2,1,-3,1,-4,-2,-1
1676113666717127,-2,1,8,12,6,4,-1,2
1676113666738116,-1,-3,-4,-13,-7,2,-1,0
1676113666738116,-1,0,2,9,6,-4,0,-3
1676113666739115,-1,1,3,0,-4,-2,-1,-1
1676113666739115,0,-1,-8,-26,-22,-2,-1,-1
1676113666752108,-1,-3,-5,7,10,2,-1,1
1676113666752108,-1,1,1,18,23,0,-1,-1
1676113666759104,-2,-1,-2,-5,-7,-2,0,-3
1676113666759104,0,0,1,5,4,1,-2,1
1676113666775095,-1,0,-3,-13,-9,2,-1,3
1676113666775095,-1,-2,1,3,2,-3,-1,-2
1676113666777093,-2,-1,1,-5,-2,1,0,-1
1676113666777093,1,2,1,7,-3,1,3,1
1676113666798082,-1,-4,-3,2,3,4,-1,1
1676113666798082,1,-1,0,2,0,-1,1,-1
1676113666799080,-3,-2,-4,-17,-4,-2,-1,-1
1676113666799080,1,1,0,18,4,-1,0,2
1676113666812073,3,-1,5,0,-3,7,1,2
1676113666812073,-5,-1,-5,16,4,-3,-3,-2
1676113666819069,1,0,-2,-6,11,-3,-1,-1
1676113666819069,-1,4,1,10,-1,5,2,2
1676113666835060,-2,-3,-3,-5,-1,3,0,0
1676113666835060,-3,-1,0,6,0,-9,-3,-3
1676113666837059,-1,-2,-3,-4,-9,-2,0,-2
1676113666837059,1,-1,2,-10,0,3,2,0
1676113666858047,0,-2,-3,1,8,5,-2,1
1676113666858047,-1,-2,-3,-14,-9,-4,-1,-2
1676113666860046,-1,2,0,-10,-11,-7,-1,-2
1676113666860046,-1,-1,-3,-6,-6,5,1,1
1676113666872038,1,1,2,28,31,8,-2,3
1676113666872038,0,-1,-1,18,-6,-6,-1,-3
1676113666881033,-3,3,9,-25,-7,0,1,-2
1676113666881033,-1,-4,-3,6,0,1,0,0
1676113666895028,-1,-4,-6,-11,-7,-1,0,2
1676113666895028,0,-4,2,-3,2,-1,-1,-2
1676113666903021,-2,-4,-2,7,2,-3,-4,-1
1676113666903021,-2,0,1,-10,-3,3,-1,1
1676113666918013,3,6,10,28,19,4,2,2
1676113666918013,-1,0,-2,-12,-7,-3,-1,-2
1676113666920012,-2,-3,-5,-4,-12,-5,0,-3
1676113666920012,1,-3,-5,-6,2,2,-1,2
1676113666932005,2,3,0,0,-5,2,-1,2
1676113666932005,0,1,3,-14,-9,-4,-1,-3
1676113666941000,-1,-4,-4,1,1,-3,-1,-4
1676113666941000,-2,-3,-2,9,8,4,1,1
1676113666954994,-1,0,-1,0,-4,3,-1,2
1676113666954994,-2,2,0,-33,-18,-5,1,-2
1676113666956992,1,2,3,24,12,-1,-2,-2
1676113666956992,0,-4,-1,23,24,2,-2,0
1676113666977980,0,2,10,-46,-37,6,0,5
1676113666977980,-2,-3,-13,-18,-4,-6,-1,-1
1676113666979979,0,0,-5,13,2,-4,-3,-1
1676113666979979,0,1,-1,2,2,5,2,2
1676113666991970,-1,0,-1,13,7,1,-2,0
1676113666991970,-1,1,1,-8,-5,-6,-3,-3
1676113667000965,-2,-1,-4,-14,-6,0,2,-1
1676113667000965,0,-2,3,18,-2,4,-1,2
1676113667015958,-1,-4,-4,-19,-9,2,-1,0
1676113667015958,-2,-3,1,-2,-1,-6,-1,-2
1676113667016956,1,3,-4,-1,0,-2,-1,-2
1676113667016956,1,-2,1,8,-4,5,0,2
1676113667037945,-1,-3,2,8,21,6,-1,-1
1676113667037945,-3,-1,-3,-3,-2,-4,-1,-3
1676113667039944,-2,1,2,9,3,-3,0,-1
1676113667039944,0,1,-3,-11,0,5,-3,0
1676113667051936,-2,-3,-7,21,-3,0,0,1
1676113667051936,-3,-2,2,-17,-14,-3,-1,-4
1676113667060931,-1,-2,-4,-19,-4,-5,0,0
1676113667060931,3,2,1,0,-1,6,0,1
1676113667075922,0,-1,-2,11,9,6,-1,0
1676113667075922,-2,-1,0,0,-2,-6,-3,-4
1676113667076921,-1,-5,-2,-16,-19,-2,0,-2
1676113667076921,-1,2,-1,19,21,2,-1,2
1676113667097911,2,-2,-3,-23,-7,1,-1,3
1676113667097911,0,0,-1,21,4,-2,1,-1
1676113667099909,1,-1,1,-20,-11,-2,0,-3
1676113667099909,-1,-1,-2,-3,-1,6,0,2
1676113667111902,-2,1,-1,14,4,1,0,0
1676113667111902,-2,-5,-4,-21,-4,-4,-2,-4
1676113667120897,-2,-5,-2,13,3,-3,-3,-2
1676113667120897,1,0,-1,-5,-9,6,-2,3
1676113667135890,-1,0,-2,-16,-3,0,-1,1
1676113667135890,-1,-1,1,23,12,-5,0,-3
1676113667136889,-3,0,5,5,3,0,-1,-2
1676113667136889,0,-6,-4,7,3,4,-1,0
1676113667157876,-1,0,-5,-14,-11,1,-1,0
1676113667157876,0,4,2,3,12,-7,-1,-2
1676113667159875,-1,-3,-2,0,1,1,0,-2
1676113667159875,1,0,2,-1,-5,3,-1,3
1676113667171867,-2,0,-4,1,-1,0,-1,-1
1676113667171867,-1,1,1,5,5,-3,0,-2
1676113667180863,-1,3,10,9,1,1,-1,0
1676113667180863,-1,1,5,-19,-5,5,-2,2
1676113667195854,0,-5,-6,2,3,0,-1,0
1676113667195854,-3,-3,-4,-5,-9,-7,-2,-5
1676113667196854,0,2,1,-6,-8,-2,-1,-1
1676113667196854,-1,-3,-1,9,4,3,1,1
1676113667217842,-1,0,-1,-2,2,0,1,-1
1676113667217842,-1,1,-4,1,-3,-5,1,-3
1676113667219841,1,-2,-3,3,3,0,1,-1
1676113667219841,0,1,3,14,3,6,0,4
1676113667231835,-4,-2,-1,8,5,-2,-1,-1
1676113667231835,-3,-1,1,-5,-2,-4,0,-5
1676113667240828,0,1,-4,-19,-6,1,0,1
1676113667240828,-1,0,8,1,-3,6,-1,1
1676113667255820,-1,-2,-3,18,6,-1,-1,0
1676113667255820,-2,-3,-4,-11,-8,-6,0,-3
1676113667256821,-1,0,-1,6,5,-4,0,0
1676113667256821,-1,0,-6,-1,0,-1,-1,1
1676113667277809,0,-1,5,-3,-4,4,2,4
1676113667277809,-1,-1,-1,-10,-5,-4,-2,-2
1676113667279806,-1,-4,-1,0,0,0,-1,-1
1676113667279806,0,0,-5,2,4,4,3,2
1676113667291798,0,2,-2,4,3,-2,-2,0
1676113667291798,2,1,-4,-10,-10,-10,-1,-2
1676113667300795,0,4,0,5,1,-1,-2,-1
1676113667300795,-4,-6,5,-3,-1,5,-1,1
1676113667315786,0,-2,-3,3,3,2,-1,-3
1676113667315786,-1,2,-2,-11,-4,-5,-1,-2
1676113667316784,-1,-2,-2,2,-2,-4,0,-4
1676113667316784,0,1,-1,20,3,7,0,1
1676113667337774,-2,-3,4,-6,15,1,0,-1
1676113667337774,-2,-2,-1,-22,-9,-2,-2,0
1676113667339772,2,2,-3,2,-3,-5,-1,-1
1676113667339772,1,-2,-5,-2,6,5,0,2
1676113667351765,0,-3,0,7,-2,-3,-1,0
1676113667351765,-2,-1,-2,0,-2,-7,-2,-3
1676113667361760,0,-2,2,-5,2,8,0,-1
1676113667361760,1,0,-1,3,0,4,0,4
1676113667375752,-2,1,-2,0,-4,0,0,-1
1676113667375752,-3,1,1,-2,-2,-5,1,-5
1676113667376751,-5,-2,-2,-13,-7,-4,-1,-3
1676113667376751,-1,-2,0,9,8,3,-4,1
1676113667397738,2,0,3,1,-3,-2,-1,-2
1676113667397738,-2,-4,-2,-1,2,-1,2,-2
1676113667399746,-1,-1,-5,2,0,-3,-1,-2
1676113667399746,-2,3,-1,-5,0,4,2,2
1676113667411731,-1,3,1,1,-1,1,0,0
1676113667411731,-1,-7,-6,-4,-4,-4,-1,-4
1676113667420725,0,-5,-4,-1,-3,-7,-1,-3
1676113667420725,1,-2,-6,-6,-1,1,-1,3
1676113667435717,-1,2,6,13,-2,5,2,1
1676113667435717,-2,2,2,-9,-2,-2,-2,-1
1676113667436717,-1,-1,2,3,-2,-2,0,-2
1676113667436717,-1,1,-2,5,1,-8,-4,-1
1676113667457705,2,2,0,-6,-7,-3,0,1
1676113667457705,-3,0,-6,-6,-4,-8,-2,-2
1676113667459705,0,0,4,8,3,-3,0,1
1676113667459705,-3,-6,-10,-6,6,-9,-3,-1
1676113667471697,0,-4,-3,-9,-5,3,-2,0
1676113667471697,0,1,5,3,-2,-6,-3,-3
1676113667480691,0,-2,-5,-6,-4,-5,-2,0
1676113667480691,2,1,1,6,-1,5,1,1
1676113667494684,-2,-4,-3,-7,0,0,2,-2
1676113667494684,3,1,-4,1,-1,-4,-2,-4
1676113667501679,-3,1,0,-3,5,7,0,-2
1676113667501679,-2,-1,0,-5,-9,7,1,1
1676113667517669,-1,-5,0,6,15,5,-3,0
1676113667517669,-6,-2,5,3,5,18,5,-5
1676113667519668,0,0,-4,-5,1,-6,-2,-3
1676113667519668,-1,3,10,0,4,31,5,5
1676113667540657,-4,-3,-4,-6,-4,-7,-2,-4
1676113667540657,3,0,2,4,0,-13,-4,-1
1676113667541657,-1,1,1,-4,-6,-3,1,0
1676113667541657,-1,-4,-3,4,1,2,-1,2
1676113667554650,-2,-1,-7,5,-4,-22,-5,-4
1676113667554650,-4,0,5,-12,-4,33,6,-2
1676113667561646,-2,-1,-3,-2,-2,-9,-8,-4
1676113667561646,-1,0,-1,0,-2,2,-6,2
1676113667577636,-8,-4,-2,-2,-3,3,4,-1
1676113667577636,1,-3,-4,0,0,-13,-9,-2
1676113667579636,0,-1,-2,-3,-7,-3,7,-2
1676113667579636,0,0,3,8,8,11,-4,2
1676113667600623,-1,1,5,4,17,5,8,-4
1676113667600623,0,-2,-9,-13,-2,-22,-1,-1
1676113667602622,-3,-1,-3,-6,-12,0,-6,2
1676113667602622,-4,-1,2,9,3,8,-4,-6
1676113667614618,-2,-5,-8,10,0,-3,-16,-4
1676113667614618,4,-1,-10,10,-7,-54,-12,-3
1676113667621611,-1,0,7,-25,-14,-18,3,0
1676113667621611,7,7,10,-16,-6,5,11,12
1676113667637603,-3,-4,-12,-27,-46,-61,-17,-6
1676113667637603,-6,-5,2,10,12,17,3,-2
1676113667639601,-5,-3,-6,4,8,-20,-8,-3
1676113667639601,1,2,5,10,10,4,1,-2
1676113667660590,2,2,-1,26,8,-6,-2,1
1676113667660590,0,4,2,-10,-10,-1,6,-2
1676113667662588,2,0,0,-3,-10,0,0,0
1676113667662588,1,5,15,-5,-9,10,4,5
1676113667674581,0,5,5,-6,11,25,5,2
1676113667674581,-8,-23,-60,-16,-3,-2,-7,-5
1676113667689575,3,-1,9,5,-1,6,3,1
1676113667689575,-1,-5,-7,2,-18,-3,-2,1
1676113667697568,-3,0,15,1,15,10,1,0
1676113667697568,3,20,98,42,-24,-9,-1,-1
1676113667699566,3,14,50,38,7,-17,-1,-4
1676113667699566,-13,-49,-99,-91,-13,0,-7,-8
1676113667720555,16,63,110,-3,-67,-19,6,4
1676113667720555,-12,-43,-128,-16,67,14,4,-8
1676113667722553,-15,-46,-18,-42,-3,41,-5,4
1676113667722553,7,22,107,-6,74,7,4,6
1676113667734548,4,6,54,32,49,32,5,8
1676113667734548,10,44,76,-101,-57,-27,-2,2
1676113667741542,-2,0,-65,-43,-41,3,4,-3
1676113667741542,-7,-13,-35,-13,16,-2,-4,-5
1676113667757536,-2,-5,-15,1,6,-11,-4,-7
1676113667757536,5,22,69,110,-5,-12,1,-3
1676113667759532,-9,-35,-100,-85,-22,-7,-5,-7
1676113667759532,5,12,67,98,57,4,-2,4
1676113667780520,-7,-29,-105,-128,-56,-4,-3,-12
1676113667780520,-5,-10,16,82,-59,3,4,4
1676113667782519,3,15,69,-37,1,1,3,3
1676113667782519,3,5,-9,-12,49,-3,-2,-1
1676113667794515,11,14,50,87,-55,9,2,2
1676113667794515,-1,-7,-8,-84,-14,0,-6,-7
1676113667801508,9,14,8,127,113,11,2,7
1676113667801508,-10,-6,-38,-62,-46,-1,2,4
1676113667817499,-1,-7,-24,-126,-48,-15,-3,-14
1676113667817499,-17,-14,-69,67,70,9,5,13
1676113667819498,2,25,95,4,44,11,2,-1
1676113667819498,32,4,5,24,-27,5,-4,1
1676113667840486,-64,-45,-80,-104,-40,-21,-6,-14
1676113667840486,12,-1,-17,-55,-23,-18,-10,-15
1676113667842487,14,26,73,77,92,27,14,12
1676113667842487,-5,1,-16,5,-20,-15,-9,-12
1676113667854477,26,14,49,117,28,10,12,16
1676113667854477,-10,-18,-65,-112,-77,1,-2,4
1676113667863473,-8,-5,-22,110,-49,-1,-4,-3
1676113667863473,4,8,48,-27,-73,5,5,9
1676113667877465,-4,-10,-46,-10,45,-5,-8,-11
1676113667877465,24,45,127,65,93,-5,4,-2
1676113667879463,-40,-79,-118,-128,-112,-5,-9,-9
1676113667879463,16,46,96,74,37,-3,5,12
1676113667900452,-44,-84,-92,-94,-117,-16,-13,-27
1676113667900452,31,61,111,91,91,36,11,15
1676113667902452,5,2,-11,-76,45,5,-2,7
1676113667902452,-22,-8,22,-52,-85,1,1,-9
1676113667914443,16,3,34,70,108,2,2,6
1676113667914443,1,1,13,-109,-91,-4,-6,-3
1676113667923437,0,-3,5,88,80,3,4,0
1676113667923437,-12,-4,-46,-62,-77,-3,-3,0
1676113667938430,18,27,29,48,109,6,2,1
1676113667938430,-18,-26,-71,-27,-23,-8,-1,-6
1676113667939430,12,32,39,12,-11,-9,-2,2
1676113667939430,-16,-35,-82,-114,-86,-20,-12,-15
1676113667968415,11,28,108,77,20,3,8,8
1676113667968415,-9,-15,-47,-62,6,-13,-11,-8
1676113667969413,-5,-9,50,58,19,5,1,-2
1676113667969413,4,14,17,-1,-56,8,5,13
1676113667974409,-7,-9,-37,-51,-34,0,-2,2
1676113667974409,-15,-12,-12,-58,-35,-13,-8,-14
1676113667983406,36,28,32,5,-32,-2,2,2
1676113667983406,-22,-21,-29,47,92,3,4,-10
1676113667998396,6,12,49,-24,-3,2,-1,6
1676113667998396,0,-3,-3,-41,-3,1,3,-2
1676113667999396,-3,-4,5,-68,-64,-12,-7,-6
1676113667999396,10,-18,-68,-9,40,6,0,-2
1676113668020384,-1,10,-2,46,3,-7,-1,2
1676113668020384,11,-2,3,-2,-2,2,2,0
1676113668022382,-32,-9,-10,-34,-23,-7,-3,-9
1676113668022382,6,-4,-8,-13,18,15,3,8
1676113668034376,-1,8,15,63,74,14,4,1
1676113668034376,-6,-8,-22,5,-65,-8,-1,-3
1676113668043370,19,34,34,-44,22,-1,2,7
1676113668043370,-7,-19,-48,70,2,7,-2,-5
1676113668058361,-1,18,43,-19,40,1,5,-2
1676113668058361,11,-2,14,13,-23,9,0,6
1676113668059361,-11,-10,-34,-111,-109,-18,-5,0
1676113668059361,4,7,33,75,82,-5,-3,3
1676113668080349,-2,-15,-42,35,7,-5,-4,-9
1676113668080349,-6,-9,-6,52,27,0,2,0
1676113668082348,-13,-2,-15,-85,-36,0,0,-4
1676113668082348,4,3,31,65,-25,-5,-4,1
1676113668094341,5,1,-2,-43,-5,-7,-4,-1
1676113668094341,-7,0,-4,-8,12,-2,-1,-4
1676113668103336,3,-9,-31,8,-2,-2,-1,-4
1676113668103336,5,14,29,-29,-4,2,4,5
1676113668118327,-4,-4,-6,-13,-42,-10,-5,-2
1676113668118327,-3,-5,-29,-69,-28,-3,2,-2
1676113668119328,10,5,49,72,52,8,-1,-1
1676113668119328,-7,3,4,30,20,-6,0,-1
1676113668140316,0,-1,50,-26,-34,-10,-5,5
1676113668140316,-17,-29,-64,-15,80,6,1,-6
1676113668142314,10,9,7,-47,-40,2,2,4
1676113668142314,-2,0,1,-1,16,0,-1,-1
1676113668154307,5,0,-17,-30,-51,-7,-3,-3
1676113668154307,-7,1,0,-32,-26,-12,1,-4
1676113668163302,-3,-1,-2,25,-29,-2,-2,2
1676113668163302,3,-1,-1,-35,-12,10,0,3
1676113668178293,-2,-5,-29,1,-24,-4,-3,-3
1676113668178293,1,1,15,-25,-6,-7,1,-4
1676113668179292,1,4,-3,-7,0,-2,4,0
1676113668179292,1,3,23,55,-25,-1,1,2
1676113668200282,1,-3,-24,-56,-13,0,-2,0
1676113668200282,-11,-11,-1,-9,-52,-2,-4,1
1676113668202279,13,5,11,24,21,-1,3,-2
1676113668202279,-11,-4,2,-44,3,2,-2,2
1676113668214274,1,3,22,38,16,-2,-1,-2
1676113668214274,9,16,12,-23,-18,-5,1,-1
1676113668223268,-2,-16,-43,75,73,3,0,-3
1676113668223268,-1,5,23,-73,-43,1,-1,0
1676113668238260,5,-2,-24,5,18,-2,-3,-2
1676113668238260,-6,3,16,-9,5,-6,-2,-3
1676113668239259,-9,3,9,44,2,-2,0,-4
1676113668239259,-8,-12,-28,-61,11,0,-3,-3
1676113668260247,0,-2,12,-24,-48,1,1,2
1676113668260247,6,7,17,69,19,-2,0,1
1676113668262245,-3,-6,-29,-114,-52,2,-3,0
1676113668262245,8,5,2,96,10,-7,1,2
1676113668274240,-7,-3,-16,-77,-17,-6,-4,-3
1676113668274240,3,8,50,119,47,2,1,0
1676113668283233,-3,-2,-4,-8,-6,-3,-3,-2
1676113668283233,5,0,-1,-26,-23,2,1,2
1676113668298227,-2,-6,-13,2,-5,-2,-1,-2
1676113668298227,-1,1,-4,-59,-57,-4,0,0
1676113668299224,6,11,28,110,86,4,3,2
1676113668299224,-2,1,9,-12,10,2,0,-2
1676113668320212,2,0,-6,-16,-10,2,1,0
1676113668320212,-7,-6,-16,63,43,0,-3,-4
1676113668322211,2,-3,-2,-69,-50,-3,0,1
1676113668322211,-7,-5,-6,-25,7,5,-2,-1
1676113668334206,-4,-4,-24,-10,17,2,2,-1
1676113668334206,2,0,4,-21,-22,-6,0,-4
1676113668343198,1,-1,3,11,-3,-3,-1,0
1676113668343198,6,3,0,-26,3,5,1,3
1676113668357193,-4,-7,-3,24,26,0,-3,-2
1676113668357193,-3,-3,9,42,25,1,-2,-2
1676113668364187,1,5,-4,-2,-15,-3,-1,0
1676113668364187,1,-2,2,0,35,13,0,4
1676113668380178,3,-3,-5,-37,-36,-4,-2,-2
1676113668380178,-11,-6,-18,-23,8,-3,0,-4
1676113668382177,-5,-16,-30,-34,-11,-3,-2,-4
1676113668382177,9,17,50,54,27,11,3,4
1676113668394170,-6,-3,-7,-33,-12,-4,-1,-1
1676113668394170,2,0,8,3,4,0,2,5
1676113668403165,-5,-5,-23,-51,-18,-3,-2,-2
1676113668403165,-3,-1,-5,15,-1,-3,1,1
1676113668418155,-3,3,18,51,16,-1,-1,-5
1676113668418155,9,2,-23,-90,-33,-2,-2,0
1676113668419155,-4,4,39,81,5,2,2,3
1676113668419155,-3,-7,-12,5,25,2,-1,-1
1676113668440144,4,3,6,4,-3,-1,0,0
1676113668440144,-3,-4,-14,-23,-10,-6,-4,-5
1676113668442142,6,3,3,-26,1,4,2,1
1676113668442142,-3,2,8,49,4,1,0,1
1676113668454136,-6,-6,-15,-5,6,-6,-1,-3
1676113668454136,1,2,12,-14,-11,-5,3,-1
1676113668463130,-3,-5,-15,-35,2,2,-1,-2
1676113668463130,-4,-6,-3,-21,-33,-2,-3,-1
1676113668477123,1,6,10,72,69,4,2,0
1676113668477123,0,0,-4,-12,-1,0,-4,-1
1676113668484122,2,1,3,-2,-1,0,1,2
1676113668484122,0,-5,-19,-28,-18,0,-3,1
1676113668500110,-4,0,-4,-18,-15,-7,-2,-6
1676113668500110,0,0,6,29,16,-2,-1,-3
1676113668502108,1,2,5,-5,-3,0,-1,1
1676113668502108,0,0,-11,-10,-3,2,0,0
1676113668523100,-1,1,13,-17,-12,-3,-1,-2
1676113668523100,1,-4,-6,-18,-6,-2,0,-1
1676113668525097,-2,-2,-3,5,-8,0,-1,0
1676113668525097,1,-1,-4,8,7,3,-1,1
1676113668537090,-1,1,-3,-9,-10,-6,-1,-1
1676113668537090,-3,-5,1,-3,-9,-4,-2,-2
1676113668544084,0,4,5,8,12,7,-1,0
1676113668544084,2,5,0,4,7,1,0,2
1676113668560076,-3,0,-4,-15,-13,-11,1,-3
1676113668560076,0,-11,-4,-2,-2,2,0,-5
1676113668562073,-2,-7,2,12,0,-3,-4,1
1676113668562073,1,2,2,3,3,0,-1,0
1676113668583062,-2,-1,-8,-24,-16,-15,-3,-3
1676113668583062,-1,5,-9,9,2,-3,0,-2
1676113668584061,4,7,13,-11,-6,17,7,5
1676113668584061,-2,-6,-9,-14,-5,-6,-3,1
1676113668597054,-1,1,3,7,-3,0,-2,-1
1676113668597054,0,0,-2,3,-3,-18,-4,-4
1676113668604050,-2,-5,-10,3,7,4,-2,-3
1676113668604050,1,1,6,6,-3,5,1,2
1676113668620041,0,1,2,8,2,-6,0,-4
1676113668620041,-1,1,4,6,17,3,-2,-2
1676113668622039,0,1,-1,-18,-22,5,1,2
1676113668622039,2,0,0,6,1,-7,2,0
1676113668643028,1,-6,-4,-11,-16,-6,-7,-4
1676113668643028,-5,2,-1,6,2,6,-7,1
1676113668645027,0,3,3,10,10,0,-2,-1
1676113668645027,-1,-4,1,-2,7,12,-8,2
1676113668657022,2,-1,-2,-2,-2,4,9,-3
1676113668657022,2,11,7,-1,-8,-7,-3,2
1676113668664016,0,-10,0,12,7,-10,-1,1
1676113668664016,0,-4,-4,-14,-4,3,2,0
1676113668680008,-2,-2,-1,8,0,-10,-6,-3
1676113668680008,8,4,5,-7,-5,15,0,1
1676113668681006,-15,8,3,19,31,4,6,9
1676113668681006,-2,-7,-5,-12,-7,-5,0,-5
1676113668701995,-1,-3,-1,-1,4,13,-18,-1
1676113668701995,1,-2,1,-9,-5,-1,-8,-8
1676113668702994,4,1,0,5,-3,0,9,2
1676113668702994,-3,-5,-3,5,10,11,7,3
1676113668716986,-2,-2,-5,-4,-5,-6,4,3
1676113668716986,-1,-3,4,14,-16,-2,4,-3
1676113668723981,3,0,1,-17,36,7,-28,3
1676113668723981,-1,5,1,-13,-40,-3,17,11
1676113668739972,-4,1,-1,4,-5,-5,3,-8
1676113668739972,-5,-5,-4,-5,14,3,8,4
1676113668740971,1,-3,-5,1,7,4,2,-5
1676113668740971,2,0,2,15,22,0,-9,-5
1676113668761960,-3,-1,-3,-6,-2,1,-1,-4
1676113668761960,-4,1,-1,-8,-6,-6,3,1
1676113668762960,3,-3,-7,-6,-23,3,-23,-1
1676113668762960,5,-1,-1,7,12,1,3,3
1676113668776951,-10,-1,-1,-5,-22,-8,-3,-6
1676113668776951,0,-3,3,15,13,0,3,0
1676113668783948,-2,0,-4,3,5,13,9,1
1676113668783948,0,2,-1,0,5,-6,-7,2
1676113668799940,14,-2,-2,-12,-8,-17,-12,-6
1676113668799940,-14,-1,-4,-9,2,6,-8,0
1676113668800938,0,-5,-1,7,-30,-4,21,0
1676113668800938,1,1,2,11,6,10,12,-1
1676113668821925,-1,1,9,3,10,-8,0,7
1676113668821925,4,-1,-2,-6,-10,-9,4,-4
1676113668822924,-2,-4,-1,2,5,9,-15,0
1676113668822924,4,2,0,-7,-19,3,0,0
1676113668836918,-9,-4,-6,-18,-8,2,1,-2
1676113668836918,4,-2,0,18,17,-6,-7,0
1676113668843912,0,-1,0,-7,-4,1,6,3
1676113668843912,-7,-1,-3,7,1,7,-2,0
1676113668859902,0,0,3,1,33,-1,2,-1
1676113668859902,-4,0,1,-5,-6,-11,0,-3
1676113668860904,3,-1,-6,-5,-1,-5,6,1
1676113668860904,7,-3,-2,6,-4,0,-4,-4
1676113668881891,-15,-2,-3,-3,-12,-5,1,-3
1676113668881891,8,-4,-2,-4,10,-1,3,2
1676113668882890,6,2,1,4,-5,5,-1,3
1676113668882890,-11,-1,0,5,11,1,-2,2
1676113668896884,14,1,1,2,0,-2,1,-3
1676113668896884,3,1,-3,-11,-17,2,9,-2
1676113668903880,25,-1,1,11,17,2,4,6
1676113668903880,-65,-3,-2,-10,-16,5,-3,-5
1676113668919870,-7,1,2,0,-1,1,-2,-12
1676113668919870,8,0,-6,-7,-11,-7,-4,-1
1676113668920869,-4,0,-5,-3,-4,3,-2,6
1676113668920869,9,-1,0,10,27,2,0,9
1676113668941856,-5,-5,3,-19,-54,-11,1,-4
1676113668941856,-4,4,5,7,12,4,-4,-2
1676113668942855,10,0,3,7,-4,-5,2,-1
1676113668942855,-4,-1,1,-5,1,7,1,5
1676113668956848,-1,1,-1,2,14,-8,-8,-1
1676113668956848,5,-3,0,-8,-19,-6,-2,-6
1676113668963844,-10,1,-2,-6,-15,-2,0,2
1676113668963844,11,1,2,13,21,0,-4,-1
1676113668979835,-5,-2,-4,-1,8,9,3,-1
1676113668979835,-2,-7,-3,-6,-12,-6,0,-4
1676113668980834,-13,-4,-18,-1,25,0,-3,0
1676113668980834,11,3,5,-7,-9,-4,-4,1
1676113669001823,5,-8,-5,0,4,0,2,-2
1676113669001823,-11,-1,4,4,4,-8,1,0
1676113669002823,-3,2,-2,3,3,7,-2,-2
1676113669002823,24,2,3,-13,-31,6,0,1
1676113669016814,-9,3,-1,6,-3,-7,1,1
1676113669016814,-9,-1,4,6,22,-4,-1,-5
1676113669023809,12,-3,3,8,4,2,0,-2
1676113669023809,-14,3,-1,-5,-14,1,-2,4
1676113669039800,4,-6,-6,-4,29,0,0,-5
1676113669039800,-5,-5,-3,-7,-40,-3,-4,-2
1676113669040800,2,4,5,2,-23,-5,-1,0
1676113669040800,11,-1,-1,14,44,13,-5,2
1676113669061789,-4,-3,-5,-9,1,-10,11,7
1676113669061789,-2,-2,-4,-3,1,-12,-3,-6
1676113669062789,-2,4,6,-13,-34,8,0,1
1676113669062789,-1,-1,5,29,35,-3,-5,-4
1676113669076779,-4,-4,-4,-11,-3,0,-3,-2
1676113669076779,2,-4,-22,-10,10,-1,1,-1
1676113669083775,-4,1,6,-2,-8,5,2,0
1676113669083775,-3,1,5,2,-6,-3,-2,-1
1676113669099767,16,9,6,8,-3,-3,-1,-1
1676113669099767,3,0,7,-5,-11,-7,0,3
1676113669100766,-24,-10,-6,0,20,8,-1,1
1676113669100766,-2,-8,-13,-11,-7,-3,-2,-7
1676113669122756,6,4,2,1,-27,0,-1,-3
1676113669122756,-10,3,2,3,34,-4,-3,0
1676113669123753,17,1,3,7,19,11,0,3
1676113669123753,2,-1,2,-9,-6,-4,2,0
1676113669136747,-4,-1,-7,-9,-9,-9,-5,-3
1676113669136747,7,3,4,3,-10,2,1,1
1676113669143741,-4,3,1,8,12,0,0,0
1676113669143741,3,-5,-10,-4,-7,-2,1,-2
1676113669159731,-9,-16,-6,-18,-23,-3,-2,-3
1676113669159731,0,-1,4,11,39,-1,-2,-4
1676113669160732,6,7,2,6,-15,0,1,6
1676113669160732,-19,2,-2,-14,-17,6,-1,5
1676113669182719,-3,5,-1,-1,3,-7,-3,-14
1676113669182719,3,-10,2,7,3,-6,-2,-1
1676113669182719,3,-5,-4,-9,0,9,1,1
1676113669182719,13,8,2,9,-3,-8,0,2
1676113669196711,13,-7,-5,3,2,0,-1,4
